SOBP group - Emax: 150 MeV - Width (X): 30%
Energy of the incident proton beam: 123.884 MeV
Depth (cm)  |  EnergyDeposit (a.u.)  |  Error (%)
0.025    1.8123846e-01    0.0848
0.075    1.8526233e-01    0.0871
0.125    1.8617942e-01    0.0910
0.175    1.8695221e-01    0.0909
0.225    1.8770756e-01    0.0913
0.275    1.8812538e-01    0.0900
0.325    1.8894578e-01    0.0937
0.375    1.8953091e-01    0.0936
0.425    1.9008525e-01    0.0928
0.475    1.9069014e-01    0.0929
0.525    1.9110600e-01    0.0913
0.575    1.9182498e-01    0.0948
0.625    1.9208422e-01    0.0914
0.675    1.9264817e-01    0.0924
0.725    1.9327259e-01    0.0946
0.775    1.9382975e-01    0.0953
0.825    1.9423464e-01    0.0929
0.875    1.9454563e-01    0.0908
0.925    1.9529909e-01    0.0936
0.975    1.9569799e-01    0.0919
1.025    1.9639468e-01    0.0958
1.075    1.9671587e-01    0.0916
1.125    1.9720487e-01    0.0936
1.175    1.9776233e-01    0.0948
1.225    1.9804482e-01    0.0922
1.275    1.9842290e-01    0.0903
1.325    1.9902885e-01    0.0917
1.375    1.9946385e-01    0.0936
1.425    1.9998236e-01    0.0926
1.475    2.0051010e-01    0.0936
1.525    2.0086610e-01    0.0907
1.575    2.0141463e-01    0.0934
1.625    2.0169700e-01    0.0905
1.675    2.0213777e-01    0.0913
1.725    2.0271436e-01    0.0917
1.775    2.0302125e-01    0.0892
1.825    2.0357946e-01    0.0921
1.875    2.0407661e-01    0.0907
1.925    2.0445221e-01    0.0913
1.975    2.0508536e-01    0.0930
2.025    2.0529798e-01    0.0880
2.075    2.0588644e-01    0.0911
2.125    2.0632696e-01    0.0900
2.175    2.0672018e-01    0.0899
2.225    2.0719508e-01    0.0890
2.275    2.0778205e-01    0.0910
2.325    2.0820746e-01    0.0894
2.375    2.0865689e-01    0.0893
2.425    2.0904248e-01    0.0883
2.475    2.0956372e-01    0.0887
2.525    2.1017920e-01    0.0900
2.575    2.1051381e-01    0.0887
2.625    2.1093909e-01    0.0877
2.675    2.1153656e-01    0.0894
2.725    2.1194674e-01    0.0882
2.775    2.1254051e-01    0.0892
2.825    2.1301210e-01    0.0891
2.875    2.1346214e-01    0.0883
2.925    2.1406841e-01    0.0896
2.975    2.1450671e-01    0.0880
3.025    2.1476600e-01    0.0862
3.075    2.1534857e-01    0.0869
3.125    2.1591558e-01    0.0877
3.175    2.1638275e-01    0.0867
3.225    2.1697987e-01    0.0881
3.275    2.1735739e-01    0.0853
3.325    2.1787757e-01    0.0875
3.375    2.1822097e-01    0.0852
3.425    2.1872128e-01    0.0845
3.475    2.1941669e-01    0.0864
3.525    2.1979322e-01    0.0837
3.575    2.2045798e-01    0.0856
3.625    2.2097777e-01    0.0846
3.675    2.2147157e-01    0.0861
3.725    2.2212352e-01    0.0866
3.775    2.2268421e-01    0.0855
3.825    2.2313940e-01    0.0841
3.875    2.2365686e-01    0.0839
3.925    2.2417363e-01    0.0832
3.975    2.2472756e-01    0.0848
4.025    2.2532068e-01    0.0842
4.075    2.2568998e-01    0.0828
4.125    2.2623388e-01    0.0825
4.175    2.2661599e-01    0.0805
4.225    2.2733841e-01    0.0814
4.275    2.2794726e-01    0.0822
4.325    2.2866325e-01    0.0836
4.375    2.2924972e-01    0.0824
4.425    2.2973039e-01    0.0810
4.475    2.3045410e-01    0.0817
4.525    2.3100037e-01    0.0808
4.575    2.3162186e-01    0.0814
4.625    2.3228827e-01    0.0811
4.675    2.3283052e-01    0.0816
4.725    2.3352702e-01    0.0811
4.775    2.3397543e-01    0.0791
4.825    2.3463339e-01    0.0797
4.875    2.3530811e-01    0.0794
4.925    2.3609358e-01    0.0803
4.975    2.3674480e-01    0.0794
5.025    2.3714991e-01    0.0773
5.075    2.3791333e-01    0.0788
5.125    2.3865144e-01    0.0786
5.175    2.3929362e-01    0.0785
5.225    2.4007883e-01    0.0789
5.275    2.4080532e-01    0.0802
5.325    2.4139976e-01    0.0777
5.375    2.4207006e-01    0.0772
5.425    2.4280889e-01    0.0766
5.475    2.4358591e-01    0.0779
5.525    2.4431127e-01    0.0773
5.575    2.4506378e-01    0.0772
5.625    2.4577031e-01    0.0763
5.675    2.4634775e-01    0.0759
5.725    2.4718136e-01    0.0759
5.775    2.4796376e-01    0.0755
5.825    2.4876082e-01    0.0753
5.875    2.4967926e-01    0.0757
5.925    2.5050216e-01    0.0761
5.975    2.5127937e-01    0.0760
6.025    2.5211957e-01    0.0760
6.075    2.5306914e-01    0.0757
6.125    2.5386649e-01    0.0752
6.175    2.5469359e-01    0.0745
6.225    2.5532441e-01    0.0732
6.275    2.5613852e-01    0.0724
6.325    2.5721302e-01    0.0741
6.375    2.5802250e-01    0.0733
6.425    2.5880102e-01    0.0712
6.475    2.5963527e-01    0.0713
6.525    2.6081924e-01    0.0723
6.575    2.6172819e-01    0.0716
6.625    2.6272463e-01    0.0716
6.675    2.6373066e-01    0.0719
6.725    2.6476150e-01    0.0709
6.775    2.6569186e-01    0.0705
6.825    2.6665894e-01    0.0707
6.875    2.6780356e-01    0.0710
6.925    2.6889980e-01    0.0707
6.975    2.6986997e-01    0.0702
7.025    2.7098347e-01    0.0700
7.075    2.7216454e-01    0.0701
7.125    2.7307508e-01    0.0688
7.175    2.7434683e-01    0.0695
7.225    2.7556190e-01    0.0694
7.275    2.7658349e-01    0.0679
7.325    2.7767301e-01    0.0667
7.375    2.7913247e-01    0.0673
7.425    2.8052517e-01    0.0680
7.475    2.8174985e-01    0.0680
7.525    2.8323630e-01    0.0677
7.575    2.8450272e-01    0.0675
7.625    2.8578147e-01    0.0670
7.675    2.8707613e-01    0.0654
7.725    2.8868167e-01    0.0666
7.775    2.9012010e-01    0.0657
7.825    2.9164217e-01    0.0653
7.875    2.9311448e-01    0.0651
7.925    2.9467371e-01    0.0657
7.975    2.9641923e-01    0.0658
8.025    2.9788444e-01    0.0646
8.075    2.9963527e-01    0.0644
8.125    3.0132589e-01    0.0639
8.175    3.0305353e-01    0.0643
8.225    3.0483788e-01    0.0635
8.275    3.0664354e-01    0.0634
8.325    3.0834263e-01    0.0621
8.375    3.1049646e-01    0.0626
8.425    3.1248270e-01    0.0622
8.475    3.1462449e-01    0.0632
8.525    3.1635045e-01    0.0609
8.575    3.1865195e-01    0.0616
8.625    3.2100911e-01    0.0612
8.675    3.2329133e-01    0.0607
8.725    3.2562908e-01    0.0600
8.775    3.2829903e-01    0.0601
8.825    3.3093041e-01    0.0600
8.875    3.3357587e-01    0.0589
8.925    3.3643369e-01    0.0594
8.975    3.3934685e-01    0.0600
9.025    3.4215641e-01    0.0597
9.075    3.4507394e-01    0.0586
9.125    3.4796050e-01    0.0581
9.175    3.5098935e-01    0.0576
9.225    3.5431193e-01    0.0577
9.275    3.5758837e-01    0.0571
9.325    3.6125153e-01    0.0571
9.375    3.6512798e-01    0.0577
9.425    3.6908105e-01    0.0581
9.475    3.7325241e-01    0.0590
9.525    3.7721784e-01    0.0580
9.575    3.8164603e-01    0.0581
9.625    3.8627484e-01    0.0588
9.675    3.9095232e-01    0.0582
9.725    3.9581886e-01    0.0578
9.775    4.0078683e-01    0.0569
9.825    4.0597107e-01    0.0561
9.875    4.1162650e-01    0.0560
9.925    4.1743038e-01    0.0549
9.975    4.2340355e-01    0.0539
10.025   4.3013047e-01    0.0537
10.075   4.3716142e-01    0.0529
10.125   4.4452965e-01    0.0518
10.175   4.5267182e-01    0.0514
10.225   4.6124489e-01    0.0508
10.275   4.7034379e-01    0.0498
10.325   4.8032247e-01    0.0495
10.375   4.9112661e-01    0.0491
10.425   5.0278022e-01    0.0487
10.475   5.1556757e-01    0.0485
10.525   5.2956910e-01    0.0481
10.575   5.4483074e-01    0.0477
10.625   5.6198855e-01    0.0478
10.675   5.8096927e-01    0.0478
10.725   6.0231513e-01    0.0478
10.775   6.2646550e-01    0.0480
10.825   6.5382033e-01    0.0479
10.875   6.8594867e-01    0.0481
10.925   7.2395061e-01    0.0486
10.975   7.6967994e-01    0.0496
11.025   8.2459321e-01    0.0512
11.075   8.8692714e-01    0.0535
11.125   9.4961020e-01    0.0568
11.175   9.9585109e-01    0.0613
11.225   1.0000000e+00    0.0682
11.275   9.4010886e-01    0.0790
11.325   8.0799543e-01    0.0955
11.375   6.2274988e-01    0.1205
11.425   4.2260964e-01    0.1588
11.475   2.4999859e-01    0.2192
11.525   1.2696146e-01    0.3194
11.575   5.4856631e-02    0.4955
11.625   2.0040040e-02    0.8280
11.675   6.4504387e-03    1.4556
11.725   2.1141603e-03    2.4999
11.775   1.0001078e-03    3.6822
11.825   7.2771895e-04    4.4378
11.875   6.8384994e-04    4.6443
11.925   6.8395514e-04    4.5051
11.975   7.0843768e-04    4.5269
12.025   6.7292434e-04    4.2992
12.075   6.6725337e-04    4.4584
12.125   6.6085678e-04    4.5286
12.175   6.6338032e-04    4.9466
12.225   6.4935073e-04    4.5812
12.275   6.7230452e-04    4.7092
12.325   6.5732282e-04    4.5145
12.375   6.7019751e-04    4.5371
12.425   6.5139755e-04    4.6128
12.475   6.8466008e-04    4.9414
12.525   6.4072237e-04    4.7373
12.575   6.1135377e-04    4.7233
12.625   6.3103029e-04    4.7167
12.675   6.4975412e-04    5.1354
12.725   6.2046024e-04    4.8463
12.775   5.9957553e-04    4.6609
12.825   6.4350947e-04    5.0823
12.875   6.3476645e-04    4.8349
12.925   5.7868109e-04    5.0688
12.975   6.1027832e-04    5.1484
13.025   5.8091872e-04    4.6605
13.075   5.7809670e-04    4.8585
13.125   5.9933217e-04    4.9447
13.175   5.6969346e-04    4.7945
13.225   5.7786102e-04    5.0356
13.275   5.8841226e-04    5.1157
13.325   5.8402729e-04    5.2688
13.375   5.4631877e-04    5.2227
13.425   5.4502260e-04    5.1091
13.475   6.0015526e-04    5.2337
13.525   5.5787448e-04    4.9333
13.575   5.6037324e-04    5.1169
13.625   5.6763022e-04    5.2546
13.675   5.5734160e-04    5.3701
13.725   5.4753047e-04    5.2458
13.775   5.3652135e-04    5.0776
13.825   5.1991137e-04    5.1003
13.875   5.4133979e-04    5.6140
13.925   5.3335195e-04    5.1231
13.975   5.5728609e-04    5.3057
14.025   5.3751744e-04    5.2882
14.075   5.6647844e-04    5.1927
14.125   5.3255097e-04    5.4824
14.175   4.9428178e-04    5.1931
14.225   5.1286711e-04    5.3415
14.275   5.0548277e-04    5.2595
14.325   5.2902063e-04    5.8523
14.375   4.9480787e-04    5.3642
14.425   4.9866831e-04    5.4005
14.475   5.0314195e-04    5.4387
14.525   4.7632793e-04    5.4873
14.575   4.6360061e-04    5.6071
14.625   4.6766683e-04    5.6137
14.675   4.8349295e-04    5.5062
14.725   4.7220253e-04    5.5060
14.775   4.5621901e-04    5.6055
14.825   4.6564306e-04    5.6439
14.875   4.7067988e-04    5.4547
14.925   4.6354046e-04    5.6457
14.975   4.6352209e-04    5.4213
15.025   4.6342544e-04    5.3670
15.075   4.6723747e-04    5.5643
15.125   4.6415683e-04    5.6307
15.175   4.7280339e-04    5.6194
15.225   4.4817475e-04    5.7502
15.275   4.7677177e-04    5.7952
15.325   4.7945448e-04    5.5133
15.375   4.5424225e-04    5.3573
15.425   4.3501277e-04    5.3970
15.475   4.4421821e-04    5.7704
15.525   4.5697660e-04    5.8825
15.575   4.3619399e-04    5.8775
15.625   4.6137605e-04    5.8280
15.675   4.3981409e-04    5.8217
15.725   4.3089026e-04    5.7967
15.775   4.3580393e-04    6.1164
15.825   4.3522604e-04    5.7070
15.875   4.4253229e-04    5.7286
15.925   4.5193978e-04    5.7320
15.975   4.5419419e-04    5.8214
16.025   4.4343894e-04    5.6905
16.075   4.1945056e-04    5.9687
16.125   4.2661245e-04    6.1901
16.175   3.9330879e-04    5.8962
16.225   3.8360657e-04    6.2702
16.275   4.0477327e-04    6.0998
16.325   4.2661342e-04    5.9571
16.375   4.2925570e-04    5.7661
16.425   4.2918037e-04    6.1665
16.475   4.0144246e-04    6.2480
16.525   4.3553285e-04    6.1618
16.575   3.9130477e-04    5.9895
16.625   3.9798282e-04    6.4706
16.675   4.0096453e-04    6.5389
16.725   3.8072998e-04    6.1642
16.775   3.8966760e-04    6.2388
16.825   3.7358277e-04    6.1080
16.875   3.5602532e-04    5.9421
16.925   3.9136150e-04    6.7325
16.975   3.8824054e-04    6.0961
17.025   3.8437394e-04    6.3439
17.075   3.7925299e-04    6.3230
17.125   3.7186804e-04    6.2554
17.175   3.9107983e-04    6.1291
17.225   3.6879321e-04    6.3866
17.275   3.5084067e-04    6.5552
17.325   3.5912271e-04    6.4609
17.375   3.7884886e-04    6.6712
17.425   3.6022871e-04    6.6959
17.475   3.7210957e-04    6.5804
17.525   3.5005345e-04    6.3319
17.575   3.6515121e-04    6.5149
17.625   3.6223929e-04    6.6081
17.675   3.5578422e-04    6.5275
17.725   3.3817477e-04    6.4172
17.775   3.5848525e-04    6.5080
17.825   3.4531781e-04    6.5066
17.875   3.3256236e-04    6.4277
17.925   3.2132080e-04    6.3187
17.975   3.2456949e-04    6.2951
18.025   3.2282431e-04    6.7578
18.075   3.2184276e-04    6.7745
18.125   3.2741186e-04    6.8645
18.175   3.2338514e-04    6.4623
18.225   3.2112629e-04    6.6137
18.275   3.2258039e-04    6.8339
18.325   3.3540894e-04    6.7724
18.375   3.0801112e-04    6.7378
18.425   3.0762918e-04    6.7295
18.475   3.3337958e-04    6.9474
18.525   3.1330184e-04    6.9501
18.575   2.9502129e-04    6.9240
18.625   3.0084660e-04    6.9829
18.675   2.9856668e-04    7.0418
18.725   2.9527712e-04    6.7393
18.775   3.0200018e-04    6.7988
18.825   3.1262205e-04    7.2426
18.875   2.9997117e-04    7.1428
18.925   2.9494146e-04    6.9041
18.975   3.0264369e-04    7.3123
19.025   2.9612589e-04    7.3396
19.075   2.8707903e-04    6.8942
19.125   2.8108630e-04    7.3050
19.175   2.8035861e-04    7.2284
19.225   2.8787477e-04    7.2493
19.275   2.8916418e-04    7.9900
19.325   2.9647192e-04    7.2754
19.375   2.8062067e-04    7.2611
19.425   2.8081003e-04    7.1646
19.475   2.8775457e-04    7.1878
19.525   2.6993931e-04    6.9298
19.575   2.7994983e-04    7.0785
19.625   2.7216149e-04    6.9915
19.675   2.7158707e-04    7.1312
19.725   2.7569095e-04    8.0581
19.775   2.7654160e-04    7.6752
19.825   2.7443071e-04    7.5405
19.875   2.6850694e-04    7.8483
19.925   2.4605814e-04    7.5742
19.975   2.6223740e-04    7.7088
20.025   2.5699936e-04    7.8179
20.075   2.8095246e-04    8.9258
20.125   2.5512714e-04    8.1940
20.175   2.3881231e-04    7.9212
20.225   2.3966465e-04    7.6664
20.275   2.3789000e-04    7.9754
20.325   2.2161232e-04    7.5492
20.375   2.4608512e-04    8.1712
20.425   2.4877953e-04    7.8995
20.475   2.5756175e-04    7.8471
20.525   2.2777937e-04    8.0510
20.575   2.4121697e-04    8.2295
20.625   2.3541156e-04    7.8574
20.675   2.2958606e-04    7.7595
20.725   2.2238030e-04    8.2808
20.775   2.4018135e-04    8.0818
20.825   2.3649380e-04    7.3359
20.875   2.3494348e-04    7.7149
20.925   2.3592916e-04    7.6017
20.975   2.3166263e-04    8.2523
21.025   2.2131212e-04    7.7587
21.075   2.1275523e-04    7.9217
21.125   2.3206714e-04    8.0389
21.175   2.3022763e-04    8.3520
21.225   2.1813753e-04    8.2295
21.275   2.3496454e-04    8.2396
21.325   2.4315787e-04    8.4029
21.375   2.3522292e-04    8.9676
21.425   2.2259325e-04    8.0527
21.475   2.1985823e-04    7.3424
21.525   2.3766877e-04    7.7861
21.575   2.3733550e-04    7.9632
21.625   2.3808954e-04    8.0168
21.675   2.3981592e-04    8.3445
21.725   2.2502553e-04    8.3764
21.775   2.2230904e-04    8.6703
21.825   2.2207364e-04    8.3039
21.875   2.0878562e-04    9.3632
21.925   2.1955290e-04    8.1688
21.975   2.1008208e-04    8.3217
22.025   2.1346779e-04    8.2823
22.075   2.0590917e-04    8.3425
22.125   2.2210524e-04    8.6769
22.175   2.1192678e-04    8.1618
22.225   1.9560497e-04    8.4427
22.275   1.9682915e-04    7.9836
22.325   2.0122405e-04    8.6011
22.375   1.8584465e-04    8.1023
22.425   2.1911696e-04    8.7865
22.475   2.2072618e-04    9.0916
22.525   2.2253888e-04    8.7767
22.575   2.0309906e-04    8.4204
22.625   2.0034322e-04    8.6001
22.675   2.0118320e-04    8.4021
22.725   1.9999765e-04    8.8567
22.775   2.0083764e-04    8.2347
22.825   2.1071934e-04    9.2268
22.875   2.1113382e-04    9.1179
22.925   1.8754507e-04    8.6101
22.975   1.8505753e-04    8.5820
23.025   2.0445592e-04    8.9722
23.075   1.9818378e-04    9.3143
23.125   2.0376181e-04    9.3285
23.175   1.9523789e-04    8.6402
23.225   1.8492624e-04    8.2315
23.275   2.0330756e-04    8.5742
23.325   1.8806889e-04    8.1194
23.375   1.8845125e-04    8.1040
23.425   1.9228194e-04    8.8050
23.475   1.9545142e-04    8.7476
23.525   1.8323037e-04    8.4211
23.575   1.9705654e-04    10.2311
23.625   1.8084466e-04    9.2743
23.675   1.9291886e-04    8.8458
23.725   1.7990875e-04    9.3423
23.775   1.8175946e-04    8.6764
23.825   1.8644574e-04    9.4508
23.875   1.7716204e-04    10.0433
23.925   1.8095696e-04    9.1189
23.975   1.7398139e-04    9.4834
24.025   1.9069278e-04    8.5907
24.075   1.9155352e-04    9.1926
24.125   1.9726820e-04    9.5543
24.175   1.9498466e-04    9.2278
24.225   1.9476778e-04    9.3983
24.275   1.6922702e-04    8.9819
24.325   1.7950313e-04    9.1618
24.375   1.6842987e-04    9.9651
24.425   1.6485146e-04    9.7760
24.475   1.6905101e-04    9.6640
24.525   1.7091068e-04    9.4178
24.575   1.7083032e-04    8.8035
24.625   1.7472110e-04    9.3036
24.675   1.6108757e-04    9.1848
24.725   1.6856645e-04    9.3397
24.775   1.6063038e-04    9.0955
24.825   1.5855910e-04    9.1441
24.875   1.7182829e-04    10.0784
24.925   1.6285683e-04    10.4212
24.975   1.6291493e-04    10.4760
25.025   1.6347983e-04    10.1691
25.075   1.5265622e-04    10.0944
25.125   1.5994243e-04    9.4533
25.175   1.5703312e-04    9.5293
25.225   1.6131309e-04    10.0767
25.275   1.5032221e-04    9.8894
25.325   1.7281590e-04    10.8284
25.375   1.6714734e-04    10.0108
25.425   1.5428597e-04    10.8528
25.475   1.3264938e-04    10.9741
25.525   1.3824537e-04    9.9031
25.575   1.6086758e-04    10.1340
25.625   1.3771787e-04    9.5873
25.675   1.4294050e-04    10.2407
25.725   1.5005174e-04    9.9187
25.775   1.5393004e-04    9.5421
25.825   1.3819671e-04    9.3609
25.875   1.3876914e-04    9.5928
25.925   1.4810498e-04    9.6786
25.975   1.5092549e-04    9.5537
26.025   1.4833894e-04    10.9847
26.075   1.5617862e-04    11.3551
26.125   1.4396354e-04    9.7685
26.175   1.3621974e-04    9.3859
26.225   1.4189063e-04    9.8122
26.275   1.4153607e-04    9.8986
26.325   1.4170630e-04    10.4466
26.375   1.4945406e-04    10.2083
26.425   1.3603252e-04    10.8128
26.475   1.3162745e-04    9.7018
26.525   1.2991665e-04    9.7206
26.575   1.4608551e-04    10.7779
26.625   1.4478706e-04    10.4153
26.675   1.3910464e-04    10.3988
26.725   1.4723047e-04    10.5695
26.775   1.4176395e-04    10.6659
26.825   1.4747150e-04    11.0491
26.875   1.2813432e-04    9.7438
26.925   1.4595224e-04    11.8883
26.975   1.3719623e-04    10.9120
27.025   1.3553360e-04    10.8120
27.075   1.3571335e-04    10.5295
27.125   1.4344667e-04    11.3842
27.175   1.2173168e-04    11.5134
27.225   1.1864069e-04    11.9282
27.275   1.2247694e-04    12.6001
27.325   1.1653818e-04    10.3552
27.375   1.1648040e-04    11.4905
27.425   1.1263420e-04    10.0730
27.475   1.2188489e-04    10.6090
27.525   1.3303308e-04    11.5348
27.575   1.3336036e-04    11.2250
27.625   1.4056698e-04    11.4517
27.675   1.2405254e-04    11.4556
27.725   1.1676100e-04    11.0534
27.775   1.2912116e-04    11.4675
27.825   1.1896357e-04    10.9105
27.875   1.2759005e-04    11.7948
27.925   1.1964839e-04    11.2267
27.975   1.2437622e-04    11.4066
28.025   1.1935680e-04    11.0144
28.075   1.1482572e-04    11.1441
28.125   1.0885756e-04    11.5765
28.175   1.1220204e-04    10.7737
28.225   1.1220178e-04    10.5028
28.275   1.0872084e-04    11.2378
28.325   1.1830540e-04    11.7619
28.375   1.1600717e-04    11.2407
28.425   1.2085339e-04    11.8166
28.475   1.1684562e-04    11.1567
28.525   1.1573988e-04    11.8105
28.575   1.1217789e-04    11.0976
28.625   1.1890491e-04    11.4630
28.675   1.1220814e-04    11.4363
28.725   1.3034081e-04    11.6955
28.775   1.1168018e-04    12.5756
28.825   1.0006262e-04    11.6652
28.875   1.0413782e-04    11.3321
28.925   1.1216261e-04    12.5201
28.975   1.0639570e-04    13.3561
29.025   1.1299927e-04    12.7308
29.075   1.0161498e-04    12.4352
29.125   1.0197565e-04    12.1751
29.175   1.0749631e-04    12.4657
29.225   1.0145219e-04    12.1603
29.275   1.0683840e-04    12.5846
29.325   1.0502890e-04    11.9577
29.375   9.3759975e-05    10.8933
29.425   9.5491983e-05    11.7296
29.475   9.7805468e-05    12.2958
29.525   1.0434179e-04    11.7936
29.575   1.0582368e-04    13.5389
29.625   1.0234345e-04    12.0742
29.675   9.4658363e-05    12.2065
29.725   1.0416351e-04    12.0878
29.775   1.1456792e-04    14.1823
29.825   1.0210565e-04    13.3803
29.875   1.0244888e-04    14.3187
29.925   1.1827981e-04    13.5448
