SOBP group - Emax: 150 MeV - Width (X): 30%
Energy of the incident proton beam: 128.253 MeV
Depth (cm)  |  EnergyDeposit (a.u.)  |  Error (%)
0.025    1.8204939e-01    0.0848
0.075    1.8620462e-01    0.0879
0.125    1.8713377e-01    0.0905
0.175    1.8786860e-01    0.0913
0.225    1.8855372e-01    0.0905
0.275    1.8916920e-01    0.0929
0.325    1.8989512e-01    0.0953
0.375    1.9042565e-01    0.0933
0.425    1.9081352e-01    0.0920
0.475    1.9136957e-01    0.0917
0.525    1.9213309e-01    0.0935
0.575    1.9259321e-01    0.0943
0.625    1.9278769e-01    0.0909
0.675    1.9341548e-01    0.0928
0.725    1.9411071e-01    0.0962
0.775    1.9448482e-01    0.0928
0.825    1.9487326e-01    0.0923
0.875    1.9547971e-01    0.0950
0.925    1.9591964e-01    0.0928
0.975    1.9632817e-01    0.0929
1.025    1.9702830e-01    0.0949
1.075    1.9730200e-01    0.0932
1.125    1.9764477e-01    0.0912
1.175    1.9819721e-01    0.0922
1.225    1.9873171e-01    0.0928
1.275    1.9909830e-01    0.0924
1.325    1.9950018e-01    0.0921
1.375    2.0001669e-01    0.0912
1.425    2.0032583e-01    0.0913
1.475    2.0086141e-01    0.0916
1.525    2.0141755e-01    0.0928
1.575    2.0186989e-01    0.0928
1.625    2.0211346e-01    0.0913
1.675    2.0260572e-01    0.0916
1.725    2.0301497e-01    0.0924
1.775    2.0344606e-01    0.0899
1.825    2.0415925e-01    0.0936
1.875    2.0454309e-01    0.0913
1.925    2.0484765e-01    0.0911
1.975    2.0536499e-01    0.0922
2.025    2.0571885e-01    0.0924
2.075    2.0599689e-01    0.0888
2.125    2.0671090e-01    0.0921
2.175    2.0697988e-01    0.0898
2.225    2.0741045e-01    0.0908
2.275    2.0790130e-01    0.0903
2.325    2.0833192e-01    0.0904
2.375    2.0866376e-01    0.0899
2.425    2.0915473e-01    0.0897
2.475    2.0959033e-01    0.0905
2.525    2.1023057e-01    0.0917
2.575    2.1048621e-01    0.0895
2.625    2.1099231e-01    0.0903
2.675    2.1140069e-01    0.0908
2.725    2.1174794e-01    0.0876
2.775    2.1236116e-01    0.0906
2.825    2.1279630e-01    0.0892
2.875    2.1310880e-01    0.0890
2.925    2.1364984e-01    0.0884
2.975    2.1414709e-01    0.0887
3.025    2.1458149e-01    0.0885
3.075    2.1495500e-01    0.0876
3.125    2.1555529e-01    0.0895
3.175    2.1600138e-01    0.0885
3.225    2.1634469e-01    0.0872
3.275    2.1687435e-01    0.0889
3.325    2.1731282e-01    0.0884
3.375    2.1761612e-01    0.0859
3.425    2.1806077e-01    0.0867
3.475    2.1866342e-01    0.0876
3.525    2.1914109e-01    0.0869
3.575    2.1956579e-01    0.0857
3.625    2.1992268e-01    0.0849
3.675    2.2053535e-01    0.0861
3.725    2.2095687e-01    0.0851
3.775    2.2162109e-01    0.0866
3.825    2.2200660e-01    0.0848
3.875    2.2242614e-01    0.0842
3.925    2.2312621e-01    0.0874
3.975    2.2345348e-01    0.0848
4.025    2.2380758e-01    0.0825
4.075    2.2450702e-01    0.0850
4.125    2.2475540e-01    0.0824
4.175    2.2534052e-01    0.0840
4.225    2.2571030e-01    0.0818
4.275    2.2642255e-01    0.0836
4.325    2.2686929e-01    0.0831
4.375    2.2749363e-01    0.0840
4.425    2.2780225e-01    0.0811
4.475    2.2855051e-01    0.0826
4.525    2.2897796e-01    0.0823
4.575    2.2947712e-01    0.0825
4.625    2.3001195e-01    0.0804
4.675    2.3067042e-01    0.0809
4.725    2.3117864e-01    0.0821
4.775    2.3171815e-01    0.0813
4.825    2.3230462e-01    0.0808
4.875    2.3286719e-01    0.0803
4.925    2.3343455e-01    0.0799
4.975    2.3430011e-01    0.0829
5.025    2.3480901e-01    0.0812
5.075    2.3522834e-01    0.0811
5.125    2.3592079e-01    0.0820
5.175    2.3648343e-01    0.0789
5.225    2.3702955e-01    0.0794
5.275    2.3750592e-01    0.0783
5.325    2.3836073e-01    0.0794
5.375    2.3886740e-01    0.0789
5.425    2.3946895e-01    0.0793
5.475    2.4012058e-01    0.0795
5.525    2.4062695e-01    0.0780
5.575    2.4141719e-01    0.0786
5.625    2.4203149e-01    0.0779
5.675    2.4272828e-01    0.0775
5.725    2.4330289e-01    0.0764
5.775    2.4414529e-01    0.0783
5.825    2.4477918e-01    0.0776
5.875    2.4544769e-01    0.0781
5.925    2.4624056e-01    0.0783
5.975    2.4667297e-01    0.0759
6.025    2.4756378e-01    0.0770
6.075    2.4820663e-01    0.0758
6.125    2.4887236e-01    0.0747
6.175    2.4978441e-01    0.0776
6.225    2.5061301e-01    0.0763
6.275    2.5112643e-01    0.0748
6.325    2.5177114e-01    0.0747
6.375    2.5253181e-01    0.0750
6.425    2.5334314e-01    0.0751
6.475    2.5402367e-01    0.0740
6.525    2.5483903e-01    0.0739
6.575    2.5548970e-01    0.0734
6.625    2.5638374e-01    0.0730
6.675    2.5730076e-01    0.0736
6.725    2.5805285e-01    0.0728
6.775    2.5889021e-01    0.0725
6.825    2.5975972e-01    0.0726
6.875    2.6057619e-01    0.0725
6.925    2.6160634e-01    0.0730
6.975    2.6237537e-01    0.0718
7.025    2.6335554e-01    0.0718
7.075    2.6428508e-01    0.0721
7.125    2.6512649e-01    0.0721
7.175    2.6606716e-01    0.0715
7.225    2.6700055e-01    0.0709
7.275    2.6784723e-01    0.0699
7.325    2.6888849e-01    0.0708
7.375    2.6975996e-01    0.0695
7.425    2.7070730e-01    0.0680
7.475    2.7193198e-01    0.0696
7.525    2.7295326e-01    0.0689
7.575    2.7403720e-01    0.0701
7.625    2.7505538e-01    0.0686
7.675    2.7634306e-01    0.0697
7.725    2.7734740e-01    0.0684
7.775    2.7849803e-01    0.0683
7.825    2.7960368e-01    0.0676
7.875    2.8093573e-01    0.0676
7.925    2.8201746e-01    0.0682
7.975    2.8318491e-01    0.0671
8.025    2.8466579e-01    0.0683
8.075    2.8572838e-01    0.0670
8.125    2.8691010e-01    0.0662
8.175    2.8839632e-01    0.0666
8.225    2.8954541e-01    0.0654
8.275    2.9098535e-01    0.0656
8.325    2.9245371e-01    0.0664
8.375    2.9370127e-01    0.0649
8.425    2.9505581e-01    0.0641
8.475    2.9672857e-01    0.0642
8.525    2.9829956e-01    0.0648
8.575    2.9991047e-01    0.0647
8.625    3.0143296e-01    0.0641
8.675    3.0283410e-01    0.0630
8.725    3.0461380e-01    0.0638
8.775    3.0635965e-01    0.0637
8.825    3.0788521e-01    0.0627
8.875    3.0959916e-01    0.0621
8.925    3.1163067e-01    0.0626
8.975    3.1350965e-01    0.0619
9.025    3.1539593e-01    0.0614
9.075    3.1745224e-01    0.0628
9.125    3.1934396e-01    0.0611
9.175    3.2143277e-01    0.0616
9.225    3.2364099e-01    0.0610
9.275    3.2580931e-01    0.0606
9.325    3.2798970e-01    0.0602
9.375    3.3037971e-01    0.0599
9.425    3.3287940e-01    0.0602
9.475    3.3540820e-01    0.0594
9.525    3.3811156e-01    0.0601
9.575    3.4067298e-01    0.0584
9.625    3.4351101e-01    0.0588
9.675    3.4620224e-01    0.0584
9.725    3.4901606e-01    0.0574
9.775    3.5223949e-01    0.0580
9.825    3.5521482e-01    0.0574
9.875    3.5829985e-01    0.0567
9.925    3.6160629e-01    0.0567
9.975    3.6530047e-01    0.0576
10.025   3.6890064e-01    0.0573
10.075   3.7256535e-01    0.0567
10.125   3.7634133e-01    0.0565
10.175   3.8089778e-01    0.0580
10.225   3.8510016e-01    0.0582
10.275   3.8942880e-01    0.0578
10.325   3.9396628e-01    0.0576
10.375   3.9867094e-01    0.0575
10.425   4.0356560e-01    0.0573
10.475   4.0849447e-01    0.0559
10.525   4.1400128e-01    0.0559
10.575   4.1936873e-01    0.0547
10.625   4.2540000e-01    0.0546
10.675   4.3159850e-01    0.0535
10.725   4.3833824e-01    0.0528
10.775   4.4543353e-01    0.0523
10.825   4.5289651e-01    0.0516
10.875   4.6077712e-01    0.0505
10.925   4.6934282e-01    0.0500
10.975   4.7871809e-01    0.0495
11.025   4.8869206e-01    0.0490
11.075   4.9943321e-01    0.0482
11.125   5.1138051e-01    0.0481
11.175   5.2427163e-01    0.0479
11.225   5.3828087e-01    0.0476
11.275   5.5375181e-01    0.0475
11.325   5.7076681e-01    0.0475
11.375   5.8966227e-01    0.0474
11.425   6.1097122e-01    0.0475
11.475   6.3475952e-01    0.0475
11.525   6.6225151e-01    0.0476
11.575   6.9396535e-01    0.0479
11.625   7.3131612e-01    0.0483
11.675   7.7643106e-01    0.0494
11.725   8.2897039e-01    0.0509
11.775   8.8787472e-01    0.0531
11.825   9.4666049e-01    0.0562
11.875   9.9103345e-01    0.0604
11.925   1.0000000e+00    0.0665
11.975   9.5315817e-01    0.0758
12.025   8.4211186e-01    0.0899
12.075   6.7802975e-01    0.1107
12.125   4.8898652e-01    0.1417
12.175   3.1229924e-01    0.1889
12.225   1.7504675e-01    0.2638
12.275   8.5094010e-02    0.3882
12.325   3.5851545e-02    0.6070
12.375   1.3178428e-02    1.0064
12.425   4.5380519e-03    1.7160
12.475   1.6766275e-03    2.8251
12.525   9.5891423e-04    3.7974
12.575   7.9619837e-04    4.2516
12.625   7.6673732e-04    4.2650
12.675   7.1816480e-04    4.2746
12.725   7.3110410e-04    4.2705
12.775   7.1600821e-04    4.2469
12.825   7.2223695e-04    4.3594
12.875   7.2164900e-04    4.5581
12.925   7.1692036e-04    4.3111
12.975   7.1899557e-04    4.5249
13.025   7.1143049e-04    4.2705
13.075   7.1177366e-04    4.3391
13.125   6.8875065e-04    4.5770
13.175   6.5787365e-04    4.5016
13.225   6.5409139e-04    4.6295
13.275   7.0411378e-04    4.6955
13.325   7.0794089e-04    4.5744
13.375   6.9310037e-04    4.5541
13.425   6.7616625e-04    4.6847
13.475   6.6105269e-04    4.4175
13.525   6.9393139e-04    4.6420
13.575   6.6183553e-04    4.4924
13.625   6.5419814e-04    4.7188
13.675   6.5696263e-04    4.9427
13.725   6.5892290e-04    4.5709
13.775   6.5217060e-04    4.9938
13.825   6.4046309e-04    4.8654
13.875   6.3331166e-04    4.7613
13.925   6.4962267e-04    4.5196
13.975   6.4512037e-04    4.7669
14.025   6.1860573e-04    4.6195
14.075   6.4618308e-04    4.6392
14.125   6.3502464e-04    4.8927
14.175   6.0157516e-04    4.6134
14.225   6.0754097e-04    4.8485
14.275   5.8351707e-04    4.8420
14.325   5.9496003e-04    5.0695
14.375   5.6061513e-04    4.8152
14.425   5.9534628e-04    4.8804
14.475   5.8695755e-04    5.0427
14.525   5.8155977e-04    5.0519
14.575   5.8516213e-04    5.0412
14.625   5.7245941e-04    4.9652
14.675   5.5352782e-04    4.8015
14.725   5.9413033e-04    4.9924
14.775   5.9038829e-04    4.9293
14.825   5.7639449e-04    4.9290
14.875   5.8235473e-04    5.1032
14.925   5.9627747e-04    5.0380
14.975   5.7598310e-04    4.8271
15.025   5.6699235e-04    4.8756
15.075   5.8385870e-04    5.1514
15.125   5.5520332e-04    4.9436
15.175   5.4720721e-04    4.9433
15.225   5.3734120e-04    5.1592
15.275   5.8848772e-04    5.2294
15.325   5.4127097e-04    5.0262
15.375   5.7045395e-04    5.3586
15.425   5.3482952e-04    5.1174
15.475   5.3462549e-04    5.1604
15.525   5.1013027e-04    5.3426
15.575   5.2234301e-04    5.3940
15.625   5.0514815e-04    5.3936
15.675   5.0789740e-04    5.3157
15.725   5.1581283e-04    5.4692
15.775   4.7654295e-04    5.2843
15.825   4.7076988e-04    5.2000
15.875   4.7634216e-04    5.4800
15.925   4.8538551e-04    5.4294
15.975   5.0519096e-04    5.4337
16.025   4.9638577e-04    5.8124
16.075   4.7943833e-04    5.5778
16.125   4.5094333e-04    5.5354
16.175   4.5934710e-04    5.3510
16.225   4.9157074e-04    5.6829
16.275   4.6040633e-04    5.4068
16.325   4.6254733e-04    5.4391
16.375   4.6523434e-04    5.7024
16.425   4.6859584e-04    5.3635
16.475   4.5780095e-04    5.5947
16.525   4.6739635e-04    5.8704
16.575   4.7243121e-04    5.8862
16.625   4.5072918e-04    5.8491
16.675   4.5182811e-04    5.7437
16.725   4.3272638e-04    5.5266
16.775   4.3901277e-04    5.6167
16.825   4.2853109e-04    6.2950
16.875   4.2968613e-04    5.8070
16.925   4.4476426e-04    5.7059
16.975   4.4340117e-04    5.6935
17.025   4.3292837e-04    5.7386
17.075   4.5699922e-04    6.4808
17.125   4.2703664e-04    5.8555
17.175   4.2736893e-04    5.8916
17.225   4.2240506e-04    5.6245
17.275   4.2250449e-04    5.6599
17.325   4.0110028e-04    5.9679
17.375   4.3067377e-04    6.0787
17.425   4.1266560e-04    5.6841
17.475   4.1837366e-04    5.7467
17.525   4.3441308e-04    5.8591
17.575   4.0762818e-04    5.6695
17.625   3.9839427e-04    5.7037
17.675   4.1407118e-04    5.8187
17.725   4.0156579e-04    5.8390
17.775   3.6672210e-04    5.8056
17.825   3.7311459e-04    5.8406
17.875   4.1606914e-04    5.9404
17.925   4.0285765e-04    5.9827
17.975   3.8955042e-04    6.1871
18.025   3.8804391e-04    5.9264
18.075   3.8767511e-04    6.7088
18.125   4.0041702e-04    6.3750
18.175   3.8832277e-04    6.0922
18.225   3.9274493e-04    6.5676
18.275   3.5679231e-04    6.5314
18.325   3.3709819e-04    5.8767
18.375   3.5267562e-04    5.8835
18.425   3.6922416e-04    6.2966
18.475   3.7717954e-04    6.4765
18.525   3.3818012e-04    6.0583
18.575   3.5613469e-04    6.0014
18.625   3.4879674e-04    6.5354
18.675   3.6319349e-04    7.1461
18.725   3.6607325e-04    6.5019
18.775   3.5390113e-04    6.4594
18.825   3.6508164e-04    6.9656
18.875   3.3192299e-04    6.4527
18.925   3.4862301e-04    6.5301
18.975   3.4707062e-04    6.3693
19.025   3.4500977e-04    6.5050
19.075   3.4396501e-04    7.0255
19.125   3.3511148e-04    6.5925
19.175   3.5167608e-04    6.7132
19.225   3.4213388e-04    6.5795
19.275   3.3647865e-04    6.4195
19.325   3.5597127e-04    6.4291
19.375   3.4261597e-04    6.4885
19.425   3.2706658e-04    6.8731
19.475   3.5773516e-04    6.5394
19.525   3.3872813e-04    6.5840
19.575   3.2463698e-04    6.4480
19.625   3.7278759e-04    7.1601
19.675   3.1156411e-04    6.5680
19.725   3.1851449e-04    6.8945
19.775   3.2373763e-04    7.0542
19.825   3.1788419e-04    6.9918
19.875   3.1665042e-04    6.5610
19.925   2.9927486e-04    6.8438
19.975   3.0716920e-04    7.1626
20.025   3.1783525e-04    6.8035
20.075   2.8986016e-04    7.0555
20.125   2.9234107e-04    6.9278
20.175   3.0338799e-04    7.1203
20.225   2.8930630e-04    6.2855
20.275   3.1347153e-04    7.8637
20.325   3.1114081e-04    7.1998
20.375   2.9772784e-04    7.2883
20.425   2.9288265e-04    7.0050
20.475   2.8581925e-04    7.1604
20.525   2.6227373e-04    7.0184
20.575   2.7157814e-04    6.8539
20.625   2.8834122e-04    6.9332
20.675   2.9396310e-04    7.1272
20.725   2.9632827e-04    6.9983
20.775   2.9304861e-04    7.1671
20.825   2.8128652e-04    6.8703
20.875   2.9252110e-04    7.0123
20.925   2.9990172e-04    7.3062
20.975   2.9554430e-04    7.9014
21.025   2.7073896e-04    6.7403
21.075   2.9035863e-04    7.0365
21.125   2.8520341e-04    7.2849
21.175   2.7517574e-04    7.2789
21.225   2.7667319e-04    7.0771
21.275   2.7609114e-04    7.1609
21.325   2.9745311e-04    7.1927
21.375   3.0277923e-04    7.8382
21.425   2.6947094e-04    7.0257
21.475   2.7387459e-04    7.1964
21.525   2.6792767e-04    7.3017
21.575   2.5625901e-04    7.4925
21.625   2.5570832e-04    7.7839
21.675   2.6250351e-04    6.9471
21.725   2.7849474e-04    7.3741
21.775   2.8431367e-04    8.2218
21.825   2.5888386e-04    7.1578
21.875   2.5331623e-04    7.2062
21.925   2.4607168e-04    7.2045
21.975   2.4619530e-04    7.4865
22.025   2.4705197e-04    7.6507
22.075   2.3842801e-04    7.4061
22.125   2.4406580e-04    7.4854
22.175   2.2984198e-04    7.1620
22.225   2.3772464e-04    7.1404
22.275   2.5211465e-04    7.3007
22.325   2.5351656e-04    7.6349
22.375   2.5457015e-04    8.0692
22.425   2.6611795e-04    8.8592
22.475   2.5479439e-04    7.7057
22.525   2.7159158e-04    7.3508
22.575   2.4784380e-04    8.0092
22.625   2.4440641e-04    7.8668
22.675   2.4058160e-04    8.5616
22.725   2.4898900e-04    8.0575
22.775   2.4387698e-04    8.8264
22.825   2.3382865e-04    7.9537
22.875   2.5104658e-04    8.3561
22.925   2.5104022e-04    8.0966
22.975   2.3752674e-04    7.3966
23.025   2.3713021e-04    7.4558
23.075   2.4192540e-04    7.7996
23.125   2.3963859e-04    8.4477
23.175   2.4141232e-04    7.9978
23.225   2.0005634e-04    8.0772
23.275   2.1200848e-04    8.5521
23.325   1.9014938e-04    8.0355
23.375   2.1447998e-04    8.4591
23.425   2.1642020e-04    8.4384
23.475   2.2760840e-04    8.4124
23.525   2.1780905e-04    8.0584
23.575   2.1818628e-04    7.8687
23.625   2.2147231e-04    8.2308
23.675   2.3060027e-04    8.4753
23.725   2.0992879e-04    8.3247
23.775   2.2105077e-04    7.9967
23.825   2.2314277e-04    9.6800
23.875   2.1502351e-04    8.3262
23.925   2.2078163e-04    8.1200
23.975   2.2167683e-04    7.9952
24.025   2.2021704e-04    9.7897
24.075   2.1799773e-04    8.3760
24.125   2.0688159e-04    8.4113
24.175   2.1400456e-04    8.4995
24.225   2.1345390e-04    9.1420
24.275   2.0256094e-04    9.5933
24.325   1.9936986e-04    8.5499
24.375   1.9349727e-04    7.7435
24.425   2.0726184e-04    9.0026
24.475   1.8885496e-04    8.8671
24.525   1.8974945e-04    8.6047
24.575   2.0620904e-04    8.9925
24.625   1.9019369e-04    8.5282
24.675   2.1271660e-04    9.0867
24.725   2.0625739e-04    9.4157
24.775   1.6746043e-04    8.5716
24.825   1.9252210e-04    8.6811
24.875   1.9200357e-04    9.3820
24.925   1.9291747e-04    8.1079
24.975   1.9173842e-04    8.4748
25.025   1.9532513e-04    9.7140
25.075   1.9165568e-04    9.0155
25.125   1.9579738e-04    8.8584
25.175   1.8223721e-04    8.3319
25.225   1.9464804e-04    9.4296
25.275   1.9117101e-04    8.3146
25.325   1.9365612e-04    9.1501
25.375   1.8671058e-04    8.4943
25.425   1.8215322e-04    8.6196
25.475   1.7302211e-04    9.1122
25.525   1.6970424e-04    8.5474
25.575   1.5942080e-04    9.0786
25.625   1.6883437e-04    8.6830
25.675   1.9499916e-04    9.2662
25.725   1.9465718e-04    9.5302
25.775   1.8463968e-04    8.9769
25.825   1.7157585e-04    9.6328
25.875   1.7062203e-04    9.4130
25.925   1.7869635e-04    9.3964
25.975   1.7122698e-04    8.3673
26.025   1.9132900e-04    9.0724
26.075   1.8236043e-04    10.0113
26.125   1.6941603e-04    9.0245
26.175   1.5935312e-04    9.0794
26.225   1.6309737e-04    9.8014
26.275   1.7070195e-04    9.8248
26.325   1.6057229e-04    10.6972
26.375   1.7305304e-04    9.7709
26.425   1.7624722e-04    9.8388
26.475   1.6895708e-04    9.6659
26.525   1.4425079e-04    10.0081
26.575   1.7230813e-04    11.0123
26.625   1.5905762e-04    9.6299
26.675   1.4841067e-04    10.1529
26.725   1.6069729e-04    10.5852
26.775   1.6078719e-04    9.4916
26.825   1.4202275e-04    9.0577
26.875   1.5066630e-04    11.2907
26.925   1.6117957e-04    10.5734
26.975   1.5335777e-04    9.9987
27.025   1.4774004e-04    9.7580
27.075   1.4995127e-04    9.0716
27.125   1.4285174e-04    9.5648
27.175   1.5479606e-04    10.1547
27.225   1.5537873e-04    9.5208
27.275   1.5532138e-04    9.5399
27.325   1.4805993e-04    10.8190
27.375   1.4404250e-04    9.0860
27.425   1.4641005e-04    9.4268
27.475   1.4241378e-04    9.5835
27.525   1.4250685e-04    9.2849
27.575   1.5569464e-04    10.7270
27.625   1.3288023e-04    9.6458
27.675   1.4479003e-04    10.2671
27.725   1.4810602e-04    11.9397
27.775   1.3545810e-04    9.8454
27.825   1.4513265e-04    9.9662
27.875   1.4250079e-04    9.5471
27.925   1.4864212e-04    9.9642
27.975   1.3535469e-04    10.3738
28.025   1.4032870e-04    10.6938
28.075   1.5389066e-04    11.5945
28.125   1.3336688e-04    9.6839
28.175   1.2941302e-04    9.8448
28.225   1.4619950e-04    10.6462
28.275   1.3229605e-04    9.8304
28.325   1.3025080e-04    10.1521
28.375   1.3652625e-04    10.7986
28.425   1.2830818e-04    10.6437
28.475   1.1796642e-04    11.0595
28.525   1.2667882e-04    10.3805
28.575   1.3131372e-04    11.5135
28.625   1.3169463e-04    10.8376
28.675   1.2035522e-04    10.4014
28.725   1.3076312e-04    10.9507
28.775   1.2243768e-04    10.1693
28.825   1.3046159e-04    10.7086
28.875   1.2257762e-04    10.3699
28.925   1.3529229e-04    10.9546
28.975   1.1729100e-04    10.0960
29.025   1.2321276e-04    11.1896
29.075   1.3508404e-04    12.1973
29.125   1.2381265e-04    11.6204
29.175   1.2918376e-04    10.8865
29.225   1.1773190e-04    10.5097
29.275   1.1977823e-04    10.7706
29.325   1.2088439e-04    10.1299
29.375   1.3596787e-04    10.9351
29.425   1.1214975e-04    10.4227
29.475   1.1551508e-04    10.3997
29.525   1.2391747e-04    11.6037
29.575   1.1958527e-04    10.3124
29.625   1.2120310e-04    9.7485
29.675   1.1747175e-04    10.7451
29.725   1.0713611e-04    11.2053
29.775   1.1856506e-04    12.2516
29.825   1.0630795e-04    11.2370
29.875   1.0994589e-04    11.4304
29.925   1.1302881e-04    11.1738
29.975   1.1474717e-04    12.1514
