SOBP group - Emax: 150 MeV - Width (X): 30%
Energy of the incident proton beam: 148.656 MeV
Depth (cm)  |  EnergyDeposit (a.u.)  |  Error (%)
0.025    1.8805990e-01    0.0836
0.075    1.9302770e-01    0.0856
0.125    1.9416686e-01    0.0922
0.175    1.9470899e-01    0.0882
0.225    1.9559322e-01    0.0917
0.275    1.9604825e-01    0.0912
0.325    1.9669994e-01    0.0921
0.375    1.9725716e-01    0.0909
0.425    1.9793822e-01    0.0948
0.475    1.9832098e-01    0.0918
0.525    1.9876874e-01    0.0907
0.575    1.9928080e-01    0.0913
0.625    1.9968046e-01    0.0906
0.675    2.0014721e-01    0.0925
0.725    2.0053477e-01    0.0908
0.775    2.0104560e-01    0.0921
0.825    2.0149232e-01    0.0915
0.875    2.0189623e-01    0.0919
0.925    2.0232040e-01    0.0905
0.975    2.0276461e-01    0.0908
1.025    2.0334028e-01    0.0928
1.075    2.0364677e-01    0.0903
1.125    2.0398301e-01    0.0914
1.175    2.0453780e-01    0.0932
1.225    2.0479439e-01    0.0918
1.275    2.0520449e-01    0.0912
1.325    2.0562575e-01    0.0916
1.375    2.0601327e-01    0.0923
1.425    2.0648443e-01    0.0931
1.475    2.0681373e-01    0.0917
1.525    2.0695975e-01    0.0908
1.575    2.0754288e-01    0.0922
1.625    2.0774883e-01    0.0902
1.675    2.0810310e-01    0.0910
1.725    2.0854813e-01    0.0924
1.775    2.0895509e-01    0.0913
1.825    2.0923975e-01    0.0903
1.875    2.0990962e-01    0.0942
1.925    2.1028221e-01    0.0939
1.975    2.1054561e-01    0.0927
2.025    2.1094016e-01    0.0923
2.075    2.1108602e-01    0.0912
2.125    2.1132341e-01    0.0883
2.175    2.1187839e-01    0.0909
2.225    2.1226710e-01    0.0908
2.275    2.1259542e-01    0.0896
2.325    2.1324084e-01    0.0910
2.375    2.1342418e-01    0.0909
2.425    2.1368222e-01    0.0904
2.475    2.1397602e-01    0.0902
2.525    2.1428661e-01    0.0895
2.575    2.1466452e-01    0.0893
2.625    2.1487600e-01    0.0879
2.675    2.1549294e-01    0.0909
2.725    2.1568382e-01    0.0903
2.775    2.1620046e-01    0.0916
2.825    2.1657376e-01    0.0904
2.875    2.1717026e-01    0.0931
2.925    2.1690550e-01    0.0865
2.975    2.1764734e-01    0.0914
3.025    2.1809484e-01    0.0911
3.075    2.1820460e-01    0.0890
3.125    2.1845243e-01    0.0904
3.175    2.1884169e-01    0.0894
3.225    2.1945046e-01    0.0911
3.275    2.1952884e-01    0.0887
3.325    2.1988375e-01    0.0889
3.375    2.2021026e-01    0.0883
3.425    2.2054792e-01    0.0878
3.475    2.2089909e-01    0.0870
3.525    2.2142751e-01    0.0900
3.575    2.2155436e-01    0.0876
3.625    2.2210514e-01    0.0895
3.675    2.2248998e-01    0.0881
3.725    2.2272411e-01    0.0868
3.775    2.2305156e-01    0.0880
3.825    2.2327831e-01    0.0862
3.875    2.2386004e-01    0.0884
3.925    2.2395661e-01    0.0858
3.975    2.2438083e-01    0.0867
4.025    2.2464632e-01    0.0866
4.075    2.2485661e-01    0.0856
4.125    2.2535872e-01    0.0857
4.175    2.2556353e-01    0.0847
4.225    2.2586643e-01    0.0845
4.275    2.2641416e-01    0.0852
4.325    2.2696976e-01    0.0878
4.375    2.2734093e-01    0.0869
4.425    2.2731870e-01    0.0844
4.475    2.2790991e-01    0.0859
4.525    2.2824079e-01    0.0862
4.575    2.2857540e-01    0.0850
4.625    2.2891267e-01    0.0844
4.675    2.2921759e-01    0.0842
4.725    2.2970273e-01    0.0851
4.775    2.3014872e-01    0.0854
4.825    2.3050841e-01    0.0846
4.875    2.3082070e-01    0.0840
4.925    2.3122739e-01    0.0846
4.975    2.3152358e-01    0.0833
5.025    2.3183194e-01    0.0834
5.075    2.3218664e-01    0.0826
5.125    2.3260802e-01    0.0823
5.175    2.3281465e-01    0.0823
5.225    2.3319888e-01    0.0822
5.275    2.3372258e-01    0.0838
5.325    2.3388297e-01    0.0814
5.375    2.3441080e-01    0.0825
5.425    2.3493658e-01    0.0834
5.475    2.3549248e-01    0.0847
5.525    2.3567977e-01    0.0832
5.575    2.3590039e-01    0.0820
5.625    2.3632782e-01    0.0822
5.675    2.3672588e-01    0.0812
5.725    2.3724865e-01    0.0815
5.775    2.3758973e-01    0.0815
5.825    2.3806657e-01    0.0834
5.875    2.3841014e-01    0.0823
5.925    2.3880565e-01    0.0815
5.975    2.3921741e-01    0.0821
6.025    2.3960590e-01    0.0819
6.075    2.4007696e-01    0.0813
6.125    2.4060151e-01    0.0813
6.175    2.4082491e-01    0.0799
6.225    2.4145373e-01    0.0818
6.275    2.4164704e-01    0.0795
6.325    2.4230802e-01    0.0817
6.375    2.4270111e-01    0.0814
6.425    2.4305285e-01    0.0804
6.475    2.4339738e-01    0.0790
6.525    2.4377990e-01    0.0801
6.575    2.4424690e-01    0.0786
6.625    2.4476234e-01    0.0805
6.675    2.4494832e-01    0.0785
6.725    2.4551284e-01    0.0789
6.775    2.4610459e-01    0.0800
6.825    2.4657988e-01    0.0796
6.875    2.4707321e-01    0.0795
6.925    2.4747637e-01    0.0798
6.975    2.4781458e-01    0.0791
7.025    2.4810905e-01    0.0777
7.075    2.4847449e-01    0.0763
7.125    2.4908544e-01    0.0768
7.175    2.4957750e-01    0.0773
7.225    2.5023520e-01    0.0793
7.275    2.5058879e-01    0.0769
7.325    2.5131293e-01    0.0780
7.375    2.5175139e-01    0.0776
7.425    2.5189078e-01    0.0754
7.475    2.5285705e-01    0.0793
7.525    2.5324232e-01    0.0774
7.575    2.5365086e-01    0.0771
7.625    2.5391683e-01    0.0752
7.675    2.5425570e-01    0.0739
7.725    2.5498498e-01    0.0757
7.775    2.5552846e-01    0.0762
7.825    2.5590184e-01    0.0745
7.875    2.5670448e-01    0.0763
7.925    2.5705406e-01    0.0744
7.975    2.5762708e-01    0.0753
8.025    2.5804156e-01    0.0746
8.075    2.5868406e-01    0.0742
8.125    2.5921464e-01    0.0747
8.175    2.5988914e-01    0.0763
8.225    2.6007496e-01    0.0722
8.275    2.6085290e-01    0.0742
8.325    2.6145746e-01    0.0728
8.375    2.6190319e-01    0.0736
8.425    2.6241314e-01    0.0732
8.475    2.6308886e-01    0.0736
8.525    2.6370716e-01    0.0732
8.575    2.6443791e-01    0.0747
8.625    2.6485894e-01    0.0725
8.675    2.6556727e-01    0.0730
8.725    2.6598645e-01    0.0720
8.775    2.6669422e-01    0.0716
8.825    2.6746243e-01    0.0729
8.875    2.6806704e-01    0.0727
8.925    2.6879007e-01    0.0723
8.975    2.6942695e-01    0.0713
9.025    2.7016252e-01    0.0723
9.075    2.7047998e-01    0.0705
9.125    2.7131637e-01    0.0707
9.175    2.7190206e-01    0.0712
9.225    2.7227335e-01    0.0704
9.275    2.7319460e-01    0.0705
9.325    2.7374273e-01    0.0686
9.375    2.7460690e-01    0.0703
9.425    2.7534514e-01    0.0699
9.475    2.7598181e-01    0.0695
9.525    2.7686229e-01    0.0697
9.575    2.7765854e-01    0.0701
9.625    2.7821734e-01    0.0692
9.675    2.7898013e-01    0.0691
9.725    2.7987752e-01    0.0696
9.775    2.8057377e-01    0.0684
9.825    2.8135953e-01    0.0694
9.875    2.8212225e-01    0.0686
9.925    2.8289456e-01    0.0679
9.975    2.8370444e-01    0.0673
10.025   2.8447434e-01    0.0677
10.075   2.8531580e-01    0.0673
10.125   2.8623670e-01    0.0678
10.175   2.8698687e-01    0.0662
10.225   2.8788983e-01    0.0670
10.275   2.8842865e-01    0.0654
10.325   2.8946339e-01    0.0658
10.375   2.9044518e-01    0.0663
10.425   2.9153148e-01    0.0664
10.475   2.9225827e-01    0.0641
10.525   2.9360045e-01    0.0658
10.575   2.9440038e-01    0.0656
10.625   2.9518020e-01    0.0641
10.675   2.9631063e-01    0.0660
10.725   2.9724475e-01    0.0649
10.775   2.9831719e-01    0.0650
10.825   2.9938736e-01    0.0651
10.875   3.0027159e-01    0.0643
10.925   3.0157071e-01    0.0658
10.975   3.0237192e-01    0.0639
11.025   3.0366986e-01    0.0653
11.075   3.0466987e-01    0.0642
11.125   3.0563641e-01    0.0626
11.175   3.0680842e-01    0.0624
11.225   3.0794678e-01    0.0620
11.275   3.0928233e-01    0.0629
11.325   3.1041277e-01    0.0624
11.375   3.1171552e-01    0.0624
11.425   3.1303800e-01    0.0629
11.475   3.1441117e-01    0.0625
11.525   3.1580725e-01    0.0623
11.575   3.1689487e-01    0.0614
11.625   3.1826521e-01    0.0613
11.675   3.1962584e-01    0.0609
11.725   3.2103403e-01    0.0610
11.775   3.2260226e-01    0.0606
11.825   3.2394030e-01    0.0600
11.875   3.2554479e-01    0.0604
11.925   3.2707560e-01    0.0603
11.975   3.2850557e-01    0.0591
12.025   3.3012981e-01    0.0586
12.075   3.3187953e-01    0.0593
12.125   3.3345990e-01    0.0590
12.175   3.3516523e-01    0.0592
12.225   3.3684355e-01    0.0586
12.275   3.3870776e-01    0.0585
12.325   3.4041554e-01    0.0575
12.375   3.4239561e-01    0.0575
12.425   3.4429417e-01    0.0575
12.475   3.4621391e-01    0.0569
12.525   3.4829828e-01    0.0573
12.575   3.5040715e-01    0.0563
12.625   3.5273266e-01    0.0569
12.675   3.5476064e-01    0.0564
12.725   3.5687311e-01    0.0557
12.775   3.5911634e-01    0.0552
12.825   3.6174879e-01    0.0561
12.875   3.6398722e-01    0.0550
12.925   3.6666146e-01    0.0549
12.975   3.6941710e-01    0.0545
13.025   3.7234701e-01    0.0551
13.075   3.7499072e-01    0.0539
13.125   3.7815754e-01    0.0540
13.175   3.8115156e-01    0.0541
13.225   3.8411211e-01    0.0532
13.275   3.8751982e-01    0.0535
13.325   3.9096679e-01    0.0538
13.375   3.9408300e-01    0.0529
13.425   3.9747699e-01    0.0526
13.475   4.0137332e-01    0.0529
13.525   4.0518402e-01    0.0528
13.575   4.0893008e-01    0.0523
13.625   4.1322634e-01    0.0527
13.675   4.1778719e-01    0.0530
13.725   4.2197140e-01    0.0525
13.775   4.2686234e-01    0.0536
13.825   4.3153045e-01    0.0526
13.875   4.3677947e-01    0.0531
13.925   4.4187454e-01    0.0526
13.975   4.4721862e-01    0.0521
14.025   4.5283359e-01    0.0518
14.075   4.5850911e-01    0.0505
14.125   4.6508535e-01    0.0506
14.175   4.7173125e-01    0.0505
14.225   4.7851228e-01    0.0492
14.275   4.8592330e-01    0.0490
14.325   4.9395617e-01    0.0488
14.375   5.0216183e-01    0.0479
14.425   5.1121959e-01    0.0475
14.475   5.2085054e-01    0.0471
14.525   5.3098260e-01    0.0463
14.575   5.4260276e-01    0.0465
14.625   5.5465402e-01    0.0459
14.675   5.6778210e-01    0.0456
14.725   5.8205393e-01    0.0455
14.775   5.9758441e-01    0.0450
14.825   6.1499946e-01    0.0451
14.875   6.3389139e-01    0.0451
14.925   6.5537394e-01    0.0452
14.975   6.7968560e-01    0.0455
15.025   7.0680279e-01    0.0457
15.075   7.3823902e-01    0.0462
15.125   7.7386631e-01    0.0469
15.175   8.1458502e-01    0.0480
15.225   8.5927467e-01    0.0493
15.275   9.0636995e-01    0.0511
15.325   9.5059519e-01    0.0534
15.375   9.8541210e-01    0.0564
15.425   1.0000000e+00    0.0604
15.475   9.8501150e-01    0.0659
15.525   9.3204899e-01    0.0735
15.575   8.3873862e-01    0.0840
15.625   7.1256290e-01    0.0983
15.675   5.6843881e-01    0.1177
15.725   4.2141897e-01    0.1445
15.775   2.8972878e-01    0.1824
15.825   1.8333938e-01    0.2370
15.875   1.0695954e-01    0.3181
15.925   5.7084244e-02    0.4427
15.975   2.7971151e-02    0.6383
16.025   1.2826089e-02    0.9560
16.075   5.6583873e-03    1.4329
16.125   2.6730050e-03    2.1075
16.175   1.5633849e-03    2.9031
16.225   1.1466966e-03    3.3094
16.275   9.9711870e-04    3.4073
16.325   9.9703960e-04    3.4784
16.375   9.9910661e-04    3.5305
16.425   9.6600678e-04    3.5874
16.475   9.7178256e-04    3.6248
16.525   9.3472412e-04    3.5812
16.575   9.5853550e-04    3.4275
16.625   9.4821237e-04    3.6514
16.675   9.4009247e-04    3.6771
16.725   9.6488416e-04    3.8971
16.775   9.6147698e-04    3.7653
16.825   9.3190043e-04    3.8693
16.875   9.2476097e-04    3.5802
16.925   9.3596962e-04    3.6580
16.975   8.9474361e-04    3.5417
17.025   9.2049895e-04    3.7737
17.075   9.1668257e-04    3.8125
17.125   9.0738495e-04    3.7490
17.175   8.9337581e-04    3.8479
17.225   8.3903374e-04    3.7063
17.275   8.6673666e-04    3.7638
17.325   8.4956805e-04    3.7519
17.375   8.3442078e-04    3.8444
17.425   9.0539066e-04    3.8925
17.475   8.8761601e-04    3.8750
17.525   8.6129471e-04    3.9462
17.575   8.4359903e-04    3.8078
17.625   8.6447404e-04    3.9867
17.675   8.3049209e-04    3.8320
17.725   8.5885976e-04    4.0133
17.775   8.5697668e-04    4.0538
17.825   8.4687735e-04    3.8561
17.875   8.2410536e-04    3.9128
17.925   8.2044603e-04    4.0802
17.975   8.5349399e-04    3.8635
18.025   8.3634937e-04    3.8806
18.075   8.2831814e-04    4.0547
18.125   7.9028388e-04    3.9419
18.175   8.1891080e-04    4.0057
18.225   8.3289712e-04    3.9818
18.275   8.0523930e-04    4.0654
18.325   7.9036007e-04    3.9022
18.375   7.7768181e-04    4.1384
18.425   7.8070709e-04    3.9724
18.475   7.7988124e-04    4.1074
18.525   7.7573631e-04    4.0109
18.575   8.2204418e-04    3.9811
18.625   7.7025340e-04    3.9763
18.675   7.7918232e-04    4.1092
18.725   7.6145679e-04    4.0935
18.775   7.3362682e-04    4.2020
18.825   7.3792261e-04    4.1676
18.875   7.1801877e-04    4.2700
18.925   7.0693695e-04    4.4282
18.975   7.1819672e-04    4.3138
19.025   6.8520848e-04    4.3913
19.075   7.0667878e-04    4.5124
19.125   6.6374899e-04    4.1895
19.175   7.0338180e-04    4.3609
19.225   7.2492220e-04    4.3249
19.275   6.9327990e-04    3.9655
19.325   7.0420385e-04    4.1167
19.375   7.0188425e-04    4.4065
19.425   6.6864511e-04    4.4058
19.475   6.8530289e-04    4.3131
19.525   7.0090298e-04    4.4753
19.575   6.8038197e-04    4.2375
19.625   6.7558936e-04    4.2958
19.675   7.1168363e-04    4.4244
19.725   6.9699709e-04    4.4372
19.775   6.6621253e-04    4.3524
19.825   6.5713992e-04    4.3840
19.875   6.3480975e-04    4.5978
19.925   6.3111667e-04    4.3187
19.975   6.4853103e-04    4.4482
20.025   6.5076031e-04    4.6862
20.075   6.5095276e-04    4.3918
20.125   6.6111772e-04    4.4575
20.175   6.8232571e-04    4.7227
20.225   6.2184958e-04    4.4893
20.275   6.4063372e-04    4.6240
20.325   6.1570690e-04    4.3975
20.375   6.5105519e-04    4.5766
20.425   6.1708975e-04    4.4417
20.475   6.3368998e-04    4.6327
20.525   6.1425801e-04    4.8526
20.575   6.0453284e-04    4.6527
20.625   6.0141519e-04    4.5469
20.675   6.0759684e-04    4.5394
20.725   6.1669107e-04    4.5917
20.775   6.0019985e-04    4.5579
20.825   5.8021511e-04    4.4329
20.875   5.8687031e-04    4.7104
20.925   5.8818833e-04    4.7895
20.975   5.8861714e-04    4.7438
21.025   5.5686537e-04    4.4785
21.075   5.7338984e-04    4.6121
21.125   5.5641728e-04    4.8037
21.175   5.5626258e-04    4.6009
21.225   5.8907316e-04    4.7396
21.275   5.9336997e-04    4.6796
21.325   5.5798249e-04    4.4779
21.375   5.7812625e-04    4.9593
21.425   5.4631533e-04    4.9123
21.475   5.6362837e-04    4.9096
21.525   5.5984291e-04    5.0164
21.575   5.4080841e-04    4.7562
21.625   5.5517940e-04    5.1590
21.675   5.1573941e-04    4.7272
21.725   5.4197158e-04    5.0083
21.775   5.5797801e-04    5.0080
21.825   5.2968357e-04    5.0927
21.875   5.3729567e-04    4.9556
21.925   5.4620757e-04    4.9419
21.975   5.2692212e-04    5.0343
22.025   5.1623630e-04    5.0851
22.075   4.9780514e-04    5.2544
22.125   4.9155981e-04    4.8527
22.175   5.0621021e-04    4.8049
22.225   4.8678257e-04    5.0151
22.275   5.0621601e-04    5.4399
22.325   5.1979558e-04    4.9063
22.375   5.0902542e-04    5.1665
22.425   5.1617037e-04    4.8747
22.475   4.9604412e-04    4.7595
22.525   5.0984168e-04    5.0724
22.575   5.2296471e-04    5.1006
22.625   4.9491351e-04    4.9315
22.675   4.8548100e-04    5.2378
22.725   4.9113242e-04    5.1661
22.775   4.9195708e-04    5.0940
22.825   4.9505484e-04    5.0870
22.875   4.7274109e-04    5.0382
22.925   4.6063552e-04    5.1805
22.975   4.6276522e-04    5.1735
23.025   4.6270672e-04    5.3988
23.075   4.6324277e-04    5.2943
23.125   4.7928605e-04    5.3815
23.175   4.8094920e-04    5.3068
23.225   4.8337447e-04    5.4573
23.275   4.7074764e-04    5.2950
23.325   4.7261794e-04    5.1922
23.375   4.6472799e-04    5.0305
23.425   4.4866748e-04    5.0630
23.475   4.3454838e-04    4.9867
23.525   4.7312213e-04    5.8681
23.575   4.4429662e-04    5.2791
23.625   4.4682084e-04    5.1419
23.675   4.6735369e-04    5.3323
23.725   4.6587988e-04    5.4709
23.775   4.6774635e-04    5.1361
23.825   4.8084612e-04    5.4555
23.875   4.4595680e-04    5.2545
23.925   4.3467167e-04    5.2941
23.975   4.3352741e-04    5.8886
24.025   4.5694304e-04    5.4337
24.075   4.3549436e-04    5.3678
24.125   4.4136663e-04    5.4153
24.175   4.0710823e-04    4.9992
24.225   4.2553403e-04    5.1914
24.275   4.2709883e-04    5.5185
24.325   4.4407149e-04    5.7627
24.375   4.4106928e-04    5.3093
24.425   4.5236254e-04    5.4807
24.475   4.5527217e-04    5.8075
24.525   4.0721124e-04    5.4850
24.575   4.1484194e-04    5.6419
24.625   4.1365977e-04    5.4800
24.675   4.0764134e-04    5.5986
24.725   3.9580525e-04    5.5579
24.775   3.9840197e-04    5.4972
24.825   4.0849161e-04    5.8581
24.875   3.9545779e-04    5.3079
24.925   4.2057966e-04    5.5915
24.975   4.0303405e-04    6.1971
25.025   4.0413513e-04    5.7257
25.075   4.0892735e-04    5.6159
25.125   3.8918712e-04    5.4683
25.175   3.7766542e-04    5.9177
25.225   3.8095128e-04    5.4524
25.275   3.9296833e-04    6.1845
25.325   4.0525312e-04    5.9023
25.375   3.8287891e-04    5.5797
25.425   3.9328588e-04    6.0259
25.475   4.2327111e-04    5.7969
25.525   3.7443591e-04    5.6069
25.575   3.8156756e-04    6.1348
25.625   3.8278602e-04    5.6868
25.675   3.5216916e-04    5.5863
25.725   3.6839786e-04    6.5113
25.775   3.6888879e-04    5.7756
25.825   3.8175340e-04    6.1085
25.875   3.5791474e-04    5.9206
25.925   3.3615055e-04    5.6386
25.975   3.6637966e-04    5.9198
26.025   3.8093386e-04    5.9781
26.075   3.6900143e-04    5.9600
26.125   3.8177700e-04    6.3284
26.175   3.5861831e-04    6.2916
26.225   3.6698183e-04    5.8861
26.275   3.7928686e-04    6.3280
26.325   3.6380588e-04    5.8884
26.375   3.6694117e-04    6.0153
26.425   3.3758952e-04    5.7632
26.475   3.5488904e-04    6.3013
26.525   3.3249191e-04    5.5225
26.575   3.6305726e-04    6.0420
26.625   3.7891004e-04    6.0383
26.675   3.8144671e-04    6.3343
26.725   3.5072519e-04    5.9776
26.775   3.4174269e-04    6.0970
26.825   3.2390876e-04    5.8783
26.875   3.3607419e-04    6.6572
26.925   3.4728482e-04    6.1910
26.975   3.3610932e-04    6.8258
27.025   3.2822570e-04    6.6568
27.075   3.3118274e-04    6.3511
27.125   3.3978417e-04    6.8078
27.175   3.2352962e-04    6.0861
27.225   3.1436758e-04    6.4382
27.275   3.2411353e-04    6.7304
27.325   3.1178530e-04    6.4936
27.375   3.1483904e-04    6.9395
27.425   2.9359073e-04    6.3741
27.475   3.0162555e-04    6.3219
27.525   3.0226556e-04    6.5334
27.575   3.1142613e-04    6.3371
27.625   2.8352956e-04    6.3391
27.675   3.0915956e-04    7.5395
27.725   3.0957958e-04    7.1455
27.775   2.9959572e-04    6.8061
27.825   2.7807151e-04    6.3136
27.875   2.8937198e-04    6.7214
27.925   2.9899434e-04    6.4019
27.975   2.6628074e-04    6.3113
28.025   2.8525975e-04    6.7886
28.075   2.8174096e-04    7.2873
28.125   2.8717174e-04    6.4971
28.175   3.0132296e-04    7.0629
28.225   2.7460443e-04    6.6520
28.275   2.8984378e-04    6.6528
28.325   2.7244410e-04    6.6246
28.375   2.9997486e-04    6.8776
28.425   2.9473642e-04    6.8752
28.475   2.7397284e-04    6.9123
28.525   2.5586434e-04    6.4840
28.575   2.7213068e-04    6.7704
28.625   2.6383389e-04    6.6258
28.675   2.8454133e-04    7.1669
28.725   2.5586518e-04    6.7978
28.775   2.7225944e-04    7.4634
28.825   2.7769932e-04    6.9803
28.875   2.7250834e-04    6.4857
28.925   2.7309468e-04    6.5758
28.975   2.8037434e-04    6.9592
29.025   2.8032034e-04    6.8177
29.075   2.8257605e-04    6.5400
29.125   2.8194098e-04    7.2781
29.175   2.7538937e-04    7.4395
29.225   2.7612832e-04    7.6203
29.275   2.6502451e-04    6.6248
29.325   2.7324570e-04    7.5359
29.375   2.5235167e-04    7.4364
29.425   2.4340868e-04    6.7608
29.475   2.4902459e-04    6.8500
29.525   2.4268129e-04    7.1308
29.575   2.4968120e-04    7.7975
29.625   2.5478447e-04    7.4481
29.675   2.4683777e-04    7.0714
29.725   2.2646347e-04    7.3522
29.775   2.5354056e-04    7.8760
29.825   2.4259536e-04    6.7909
29.875   2.5087094e-04    7.3792
29.925   2.6599775e-04    7.8477
29.975   2.3542723e-04    7.0246
30.025   2.3203052e-04    6.9582
