SOBP group - Emax: 150 MeV - Width (X): 30%
Energy of the incident proton beam: 138.194 MeV
Depth (cm)  |  EnergyDeposit (a.u.)  |  Error (%)
0.025    1.8474035e-01    0.0871
0.075    1.8925313e-01    0.0873
0.125    1.9024185e-01    0.0912
0.175    1.9092212e-01    0.0910
0.225    1.9155859e-01    0.0894
0.275    1.9222715e-01    0.0921
0.325    1.9288182e-01    0.0944
0.375    1.9343323e-01    0.0919
0.425    1.9376433e-01    0.0901
0.475    1.9433875e-01    0.0907
0.525    1.9482295e-01    0.0914
0.575    1.9557096e-01    0.0931
0.625    1.9592668e-01    0.0940
0.675    1.9632848e-01    0.0930
0.725    1.9679416e-01    0.0916
0.775    1.9741521e-01    0.0939
0.825    1.9784782e-01    0.0929
0.875    1.9808163e-01    0.0917
0.925    1.9877204e-01    0.0949
0.975    1.9929330e-01    0.0936
1.025    1.9973978e-01    0.0946
1.075    1.9990292e-01    0.0928
1.125    2.0034147e-01    0.0923
1.175    2.0092551e-01    0.0928
1.225    2.0139015e-01    0.0938
1.275    2.0178159e-01    0.0936
1.325    2.0215993e-01    0.0932
1.375    2.0279136e-01    0.0955
1.425    2.0293542e-01    0.0928
1.475    2.0332885e-01    0.0930
1.525    2.0377795e-01    0.0922
1.575    2.0422166e-01    0.0936
1.625    2.0442924e-01    0.0918
1.675    2.0481575e-01    0.0914
1.725    2.0521094e-01    0.0915
1.775    2.0552625e-01    0.0899
1.825    2.0606323e-01    0.0916
1.875    2.0663254e-01    0.0928
1.925    2.0683263e-01    0.0918
1.975    2.0721131e-01    0.0914
2.025    2.0756088e-01    0.0909
2.075    2.0806011e-01    0.0926
2.125    2.0857206e-01    0.0930
2.175    2.0881658e-01    0.0912
2.225    2.0919149e-01    0.0899
2.275    2.0962985e-01    0.0912
2.325    2.1020392e-01    0.0932
2.375    2.1028662e-01    0.0900
2.425    2.1058570e-01    0.0895
2.475    2.1109689e-01    0.0906
2.525    2.1154411e-01    0.0910
2.575    2.1193967e-01    0.0901
2.625    2.1232923e-01    0.0900
2.675    2.1265351e-01    0.0891
2.725    2.1299807e-01    0.0890
2.775    2.1353852e-01    0.0902
2.825    2.1412609e-01    0.0918
2.875    2.1425750e-01    0.0897
2.925    2.1457826e-01    0.0886
2.975    2.1521358e-01    0.0905
3.025    2.1552181e-01    0.0899
3.075    2.1575391e-01    0.0885
3.125    2.1613864e-01    0.0890
3.175    2.1646777e-01    0.0890
3.225    2.1708806e-01    0.0890
3.275    2.1751748e-01    0.0885
3.325    2.1787492e-01    0.0879
3.375    2.1819301e-01    0.0880
3.425    2.1846908e-01    0.0868
3.475    2.1893754e-01    0.0883
3.525    2.1942754e-01    0.0869
3.575    2.1977881e-01    0.0886
3.625    2.2010555e-01    0.0864
3.675    2.2058813e-01    0.0877
3.725    2.2096974e-01    0.0881
3.775    2.2135789e-01    0.0875
3.825    2.2186286e-01    0.0880
3.875    2.2206605e-01    0.0858
3.925    2.2251298e-01    0.0862
3.975    2.2296447e-01    0.0863
4.025    2.2323105e-01    0.0863
4.075    2.2355776e-01    0.0844
4.125    2.2400159e-01    0.0856
4.175    2.2430434e-01    0.0842
4.225    2.2478325e-01    0.0839
4.275    2.2518411e-01    0.0840
4.325    2.2566300e-01    0.0843
4.375    2.2593088e-01    0.0829
4.425    2.2669531e-01    0.0862
4.475    2.2702598e-01    0.0849
4.525    2.2743639e-01    0.0840
4.575    2.2788006e-01    0.0850
4.625    2.2821761e-01    0.0832
4.675    2.2880166e-01    0.0849
4.725    2.2937149e-01    0.0844
4.775    2.2971386e-01    0.0842
4.825    2.3014050e-01    0.0828
4.875    2.3069569e-01    0.0842
4.925    2.3103694e-01    0.0828
4.975    2.3130587e-01    0.0817
5.025    2.3191679e-01    0.0822
5.075    2.3244307e-01    0.0833
5.125    2.3284738e-01    0.0831
5.175    2.3316829e-01    0.0809
5.225    2.3359740e-01    0.0811
5.275    2.3424569e-01    0.0832
5.325    2.3466979e-01    0.0822
5.375    2.3515988e-01    0.0816
5.425    2.3584424e-01    0.0822
5.475    2.3603764e-01    0.0802
5.525    2.3639166e-01    0.0792
5.575    2.3696617e-01    0.0805
5.625    2.3755162e-01    0.0808
5.675    2.3807507e-01    0.0804
5.725    2.3854271e-01    0.0803
5.775    2.3907336e-01    0.0807
5.825    2.3964462e-01    0.0799
5.875    2.4013955e-01    0.0804
5.925    2.4055819e-01    0.0792
5.975    2.4103943e-01    0.0788
6.025    2.4152833e-01    0.0796
6.075    2.4225711e-01    0.0812
6.125    2.4268815e-01    0.0798
6.175    2.4324408e-01    0.0787
6.225    2.4382673e-01    0.0793
6.275    2.4423203e-01    0.0779
6.325    2.4505279e-01    0.0798
6.375    2.4541841e-01    0.0786
6.425    2.4560024e-01    0.0746
6.475    2.4634905e-01    0.0768
6.525    2.4692051e-01    0.0761
6.575    2.4768306e-01    0.0775
6.625    2.4814143e-01    0.0764
6.675    2.4868374e-01    0.0754
6.725    2.4934212e-01    0.0760
6.775    2.5007230e-01    0.0771
6.825    2.5054171e-01    0.0762
6.875    2.5125235e-01    0.0765
6.925    2.5178433e-01    0.0754
6.975    2.5233591e-01    0.0760
7.025    2.5300229e-01    0.0765
7.075    2.5346599e-01    0.0751
7.125    2.5439403e-01    0.0764
7.175    2.5495999e-01    0.0758
7.225    2.5563535e-01    0.0753
7.275    2.5630926e-01    0.0760
7.325    2.5675898e-01    0.0736
7.375    2.5759172e-01    0.0750
7.425    2.5821948e-01    0.0741
7.475    2.5890587e-01    0.0747
7.525    2.5946636e-01    0.0737
7.575    2.6006791e-01    0.0721
7.625    2.6079624e-01    0.0723
7.675    2.6162990e-01    0.0720
7.725    2.6244752e-01    0.0737
7.775    2.6297988e-01    0.0719
7.825    2.6358497e-01    0.0712
7.875    2.6462087e-01    0.0730
7.925    2.6535289e-01    0.0725
7.975    2.6600445e-01    0.0721
8.025    2.6688819e-01    0.0720
8.075    2.6770021e-01    0.0721
8.125    2.6845597e-01    0.0711
8.175    2.6931991e-01    0.0719
8.225    2.6991733e-01    0.0701
8.275    2.7087439e-01    0.0703
8.325    2.7161780e-01    0.0709
8.375    2.7259242e-01    0.0711
8.425    2.7330113e-01    0.0700
8.475    2.7423718e-01    0.0705
8.525    2.7503454e-01    0.0698
8.575    2.7592292e-01    0.0694
8.625    2.7678109e-01    0.0690
8.675    2.7776372e-01    0.0689
8.725    2.7876327e-01    0.0690
8.775    2.7952104e-01    0.0682
8.825    2.8032078e-01    0.0674
8.875    2.8138640e-01    0.0671
8.925    2.8240743e-01    0.0679
8.975    2.8349867e-01    0.0675
9.025    2.8453157e-01    0.0677
9.075    2.8540336e-01    0.0666
9.125    2.8644076e-01    0.0661
9.175    2.8756983e-01    0.0664
9.225    2.8882693e-01    0.0670
9.275    2.8978704e-01    0.0657
9.325    2.9117945e-01    0.0672
9.375    2.9204849e-01    0.0651
9.425    2.9342638e-01    0.0665
9.475    2.9444383e-01    0.0654
9.525    2.9557369e-01    0.0646
9.575    2.9693220e-01    0.0650
9.625    2.9800555e-01    0.0635
9.675    2.9936596e-01    0.0643
9.725    3.0073978e-01    0.0642
9.775    3.0200424e-01    0.0642
9.825    3.0349673e-01    0.0640
9.875    3.0484235e-01    0.0642
9.925    3.0628313e-01    0.0642
9.975    3.0766269e-01    0.0629
10.025   3.0894243e-01    0.0622
10.075   3.1040278e-01    0.0622
10.125   3.1185617e-01    0.0616
10.175   3.1353322e-01    0.0623
10.225   3.1528463e-01    0.0624
10.275   3.1674505e-01    0.0617
10.325   3.1834786e-01    0.0616
10.375   3.1987990e-01    0.0604
10.425   3.2141801e-01    0.0599
10.475   3.2348730e-01    0.0614
10.525   3.2508586e-01    0.0591
10.575   3.2699960e-01    0.0596
10.625   3.2908420e-01    0.0607
10.675   3.3111547e-01    0.0600
10.725   3.3308135e-01    0.0597
10.775   3.3521519e-01    0.0595
10.825   3.3727039e-01    0.0584
10.875   3.3968553e-01    0.0596
10.925   3.4179801e-01    0.0587
10.975   3.4410888e-01    0.0585
11.025   3.4648912e-01    0.0579
11.075   3.4885452e-01    0.0570
11.125   3.5169686e-01    0.0574
11.175   3.5445867e-01    0.0576
11.225   3.5714132e-01    0.0570
11.275   3.5990353e-01    0.0561
11.325   3.6291961e-01    0.0563
11.375   3.6580361e-01    0.0559
11.425   3.6897461e-01    0.0562
11.475   3.7209375e-01    0.0561
11.525   3.7498780e-01    0.0547
11.575   3.7857315e-01    0.0548
11.625   3.8212458e-01    0.0547
11.675   3.8580257e-01    0.0548
11.725   3.8969265e-01    0.0549
11.775   3.9376920e-01    0.0553
11.825   3.9788864e-01    0.0551
11.875   4.0210521e-01    0.0550
11.925   4.0670394e-01    0.0552
11.975   4.1129277e-01    0.0552
12.025   4.1614574e-01    0.0548
12.075   4.2119815e-01    0.0547
12.125   4.2624205e-01    0.0540
12.175   4.3177181e-01    0.0537
12.225   4.3753641e-01    0.0532
12.275   4.4372158e-01    0.0531
12.325   4.4991736e-01    0.0521
12.375   4.5647064e-01    0.0510
12.425   4.6369870e-01    0.0504
12.475   4.7150071e-01    0.0500
12.525   4.7964810e-01    0.0495
12.575   4.8845335e-01    0.0490
12.625   4.9778138e-01    0.0485
12.675   5.0770665e-01    0.0479
12.725   5.1857963e-01    0.0475
12.775   5.3025867e-01    0.0470
12.825   5.4312003e-01    0.0468
12.875   5.5699998e-01    0.0465
12.925   5.7243382e-01    0.0465
12.975   5.8928223e-01    0.0463
13.025   6.0787577e-01    0.0464
13.075   6.2849559e-01    0.0463
13.125   6.5216317e-01    0.0466
13.175   6.7865077e-01    0.0466
13.225   7.0911717e-01    0.0469
13.275   7.4486228e-01    0.0476
13.325   7.8623112e-01    0.0485
13.375   8.3381011e-01    0.0498
13.425   8.8636511e-01    0.0518
13.475   9.3820816e-01    0.0543
13.525   9.8060587e-01    0.0575
13.575   1.0000000e+00    0.0622
13.625   9.8116037e-01    0.0689
13.675   9.1294623e-01    0.0784
13.725   7.9599794e-01    0.0920
13.775   6.4331869e-01    0.1112
13.825   4.7659601e-01    0.1387
13.875   3.2085706e-01    0.1787
13.925   1.9532011e-01    0.2385
13.975   1.0686605e-01    0.3314
14.025   5.2074070e-02    0.4826
14.075   2.2600637e-02    0.7406
14.125   9.0674903e-03    1.1715
14.175   3.5540078e-03    1.8602
14.225   1.6325292e-03    2.8894
14.275   1.0225250e-03    3.4519
14.325   8.9502877e-04    3.8395
14.375   8.6382835e-04    3.9130
14.425   8.6081195e-04    4.0681
14.475   8.2864323e-04    3.9111
14.525   8.4321875e-04    4.0382
14.575   8.3855916e-04    3.9613
14.625   8.3139734e-04    4.0114
14.675   8.4867470e-04    3.9962
14.725   8.0256714e-04    3.8884
14.775   8.1738709e-04    4.0000
14.825   8.2587829e-04    4.1931
14.875   7.8611361e-04    4.0188
14.925   7.7918949e-04    4.1379
14.975   7.7432378e-04    4.2160
15.025   7.8802861e-04    4.3921
15.075   7.6408030e-04    4.0756
15.125   7.8121500e-04    4.1748
15.175   7.6382395e-04    4.0327
15.225   7.7398920e-04    4.0785
15.275   7.5332683e-04    4.1392
15.325   7.9484954e-04    4.1238
15.375   7.5260943e-04    3.9667
15.425   7.5651411e-04    4.1407
15.475   7.3435173e-04    4.2879
15.525   7.3524393e-04    4.1766
15.575   7.4891042e-04    4.1421
15.625   7.1817960e-04    4.3261
15.675   7.0397826e-04    4.1899
15.725   7.0279290e-04    4.1960
15.775   7.3540659e-04    4.3372
15.825   7.3513504e-04    4.4797
15.875   7.1258753e-04    4.1728
15.925   7.2379601e-04    4.3856
15.975   7.1698376e-04    4.5052
16.025   7.1022253e-04    4.1073
16.075   7.0829705e-04    4.3962
16.125   7.2785179e-04    4.2629
16.175   7.0732566e-04    4.4418
16.225   6.8503231e-04    4.2253
16.275   6.8920404e-04    4.4509
16.325   6.9881339e-04    4.5575
16.375   6.9813429e-04    4.4244
16.425   6.7788240e-04    4.4470
16.475   6.8243046e-04    4.5712
16.525   6.8881444e-04    4.6656
16.575   6.8685219e-04    4.5814
16.625   6.3023224e-04    4.4145
16.675   6.4486851e-04    4.5747
16.725   6.3449995e-04    4.4900
16.775   6.1507479e-04    4.6996
16.825   6.5173138e-04    4.7043
16.875   6.3348570e-04    4.6212
16.925   5.9757857e-04    4.7284
16.975   6.2625081e-04    4.8886
17.025   6.3248877e-04    4.8759
17.075   6.3133173e-04    4.8141
17.125   6.2019716e-04    4.6705
17.175   5.9158506e-04    4.5386
17.225   6.4753886e-04    4.9150
17.275   6.0541217e-04    4.6277
17.325   5.8799665e-04    4.7578
17.375   6.0165234e-04    4.6051
17.425   5.8872658e-04    4.6285
17.475   5.9451417e-04    4.9533
17.525   5.8087216e-04    4.8528
17.575   5.3768221e-04    4.8664
17.625   5.6545093e-04    4.6530
17.675   5.6089993e-04    4.7808
17.725   5.9409374e-04    4.7902
17.775   5.4518203e-04    4.8556
17.825   5.4472281e-04    4.8107
17.875   5.4955665e-04    5.0360
17.925   5.6715857e-04    4.7987
17.975   5.6122454e-04    4.9465
18.025   5.2848086e-04    4.8798
18.075   5.6968089e-04    4.9967
18.125   5.5560435e-04    4.9907
18.175   5.5421195e-04    4.9028
18.225   5.5108709e-04    4.8021
18.275   5.3971118e-04    4.7819
18.325   5.3464916e-04    4.8304
18.375   5.4116211e-04    5.0855
18.425   5.3720662e-04    5.0204
18.475   5.4188100e-04    4.8719
18.525   5.2148287e-04    4.7962
18.575   5.0478771e-04    4.9784
18.625   5.2303964e-04    5.3756
18.675   5.0625767e-04    4.9856
18.725   5.1402215e-04    5.0544
18.775   4.8018869e-04    4.7663
18.825   5.2529626e-04    4.9038
18.875   5.0659651e-04    4.8696
18.925   5.3588517e-04    5.1278
18.975   5.1103771e-04    5.2345
19.025   4.8658103e-04    5.0803
19.075   4.8580943e-04    5.5051
19.125   5.2549548e-04    5.6334
19.175   4.9085571e-04    5.0348
19.225   4.8848597e-04    5.3410
19.275   4.9498453e-04    5.5403
19.325   4.6776281e-04    5.2411
19.375   4.7791076e-04    5.4613
19.425   4.6205557e-04    5.5712
19.475   4.5583821e-04    5.5418
19.525   4.7762514e-04    5.5487
19.575   4.5082477e-04    5.5723
19.625   4.4769166e-04    5.4579
19.675   4.4929178e-04    5.4634
19.725   4.6982283e-04    5.2684
19.775   4.5731094e-04    5.4469
19.825   4.5789832e-04    5.6408
19.875   4.4721058e-04    5.3882
19.925   4.5390985e-04    5.6087
19.975   4.4805198e-04    5.5250
20.025   4.3947211e-04    5.7197
20.075   4.2862849e-04    5.4328
20.125   4.3930260e-04    5.7174
20.175   4.2931082e-04    5.6492
20.225   4.3816033e-04    5.5774
20.275   4.2948743e-04    5.8053
20.325   4.4635799e-04    5.8173
20.375   4.2952575e-04    5.5039
20.425   4.2781713e-04    5.9592
20.475   4.0652628e-04    5.8945
20.525   3.9322469e-04    5.6841
20.575   4.1283850e-04    5.6946
20.625   4.1871279e-04    5.4177
20.675   3.8992371e-04    5.7235
20.725   4.0239617e-04    5.8929
20.775   4.0078859e-04    5.6915
20.825   4.2971448e-04    6.2097
20.875   4.0943827e-04    6.1935
20.925   4.1845597e-04    6.2085
20.975   3.8395961e-04    5.6673
21.025   3.8707541e-04    5.9177
21.075   4.2310747e-04    6.0875
21.125   3.9068166e-04    6.0239
21.175   4.1444239e-04    5.9737
21.225   3.5761250e-04    6.1605
21.275   3.7013315e-04    5.8626
21.325   3.9749692e-04    5.8050
21.375   3.8446975e-04    5.9399
21.425   3.7491055e-04    5.9742
21.475   3.7432544e-04    5.9015
21.525   3.7230325e-04    5.8736
21.575   3.8698160e-04    6.3431
21.625   4.0318429e-04    6.5429
21.675   3.7091618e-04    6.5018
21.725   3.8087167e-04    6.4954
21.775   3.4691164e-04    6.1575
21.825   3.6559569e-04    6.2944
21.875   3.6088773e-04    6.2826
21.925   3.5032254e-04    6.4771
21.975   3.7214862e-04    6.5816
22.025   3.5883935e-04    6.4602
22.075   3.4925372e-04    6.0233
22.125   3.7510739e-04    6.1899
22.175   3.4030412e-04    6.2256
22.225   3.2618177e-04    6.5941
22.275   3.4993172e-04    6.6380
22.325   3.3130028e-04    6.5301
22.375   3.2471341e-04    6.6511
22.425   3.1549772e-04    6.5985
22.475   3.3031026e-04    6.4391
22.525   3.3488122e-04    6.2891
22.575   3.4774139e-04    6.7046
22.625   2.9861168e-04    6.4161
22.675   3.2871509e-04    6.5748
22.725   3.3575643e-04    6.2910
22.775   3.2836208e-04    6.8007
22.825   3.4493682e-04    6.6630
22.875   3.1547852e-04    6.5798
22.925   3.0731635e-04    6.0207
22.975   3.4328142e-04    7.1876
23.025   3.3125084e-04    6.6900
23.075   3.2414840e-04    6.6807
23.125   3.3323861e-04    6.2550
23.175   3.2352567e-04    6.9729
23.225   3.1728301e-04    6.7416
23.275   3.0254952e-04    6.6429
23.325   3.2173171e-04    7.1034
23.375   3.2122876e-04    7.4703
23.425   3.1268378e-04    6.5779
23.475   3.3455956e-04    6.3904
23.525   3.3052322e-04    7.1288
23.575   3.1754259e-04    6.9372
23.625   3.2341814e-04    6.8731
23.675   2.8705224e-04    6.7883
23.725   2.9905029e-04    7.2450
23.775   2.8296033e-04    6.4918
23.825   2.9686976e-04    6.7563
23.875   3.0212986e-04    6.7393
23.925   3.0523980e-04    7.2185
23.975   3.0526455e-04    6.8349
24.025   2.8234242e-04    7.2309
24.075   3.0020739e-04    7.4858
24.125   2.8660562e-04    6.4468
24.175   2.9000940e-04    6.9493
24.225   2.9861539e-04    6.9953
24.275   3.1741403e-04    6.7429
24.325   2.9037345e-04    6.8354
24.375   2.7333469e-04    6.9141
24.425   3.0273560e-04    7.1543
24.475   2.7864463e-04    7.0188
24.525   2.8599094e-04    6.7255
24.575   2.8308276e-04    7.3425
24.625   2.8453046e-04    7.2118
24.675   2.7023945e-04    7.0249
24.725   2.8484708e-04    6.7116
24.775   2.9033630e-04    7.0217
24.825   2.8829505e-04    7.0035
24.875   2.7029554e-04    7.5798
24.925   2.6202064e-04    7.4717
24.975   2.5485439e-04    6.8329
25.025   2.7975182e-04    7.1547
25.075   2.5719983e-04    7.1712
25.125   2.6661486e-04    7.4541
25.175   2.6640393e-04    7.4307
25.225   2.8173779e-04    7.9019
25.275   2.5230355e-04    7.1078
25.325   2.5406730e-04    6.9241
25.375   2.6142044e-04    7.0296
25.425   2.2833627e-04    6.7876
25.475   2.4746697e-04    7.2196
25.525   2.4788796e-04    7.1058
25.575   2.6228480e-04    7.3669
25.625   2.5589440e-04    7.4440
25.675   2.4787546e-04    7.1538
25.725   2.6189902e-04    7.6240
25.775   2.5693697e-04    7.0664
25.825   2.5749123e-04    7.5806
25.875   2.5856958e-04    7.4406
25.925   2.4103209e-04    7.4302
25.975   2.4045516e-04    7.4988
26.025   2.3745856e-04    8.1278
26.075   2.3642433e-04    7.7746
26.125   2.5641099e-04    7.4956
26.175   2.5259849e-04    7.2223
26.225   2.5892524e-04    7.9950
26.275   2.4496229e-04    7.5279
26.325   2.4091168e-04    7.4690
26.375   2.1468365e-04    8.2343
26.425   2.3155569e-04    7.9417
26.475   2.3761091e-04    7.7626
26.525   2.1856702e-04    7.7640
26.575   2.3713402e-04    8.5194
26.625   2.4303426e-04    7.8506
26.675   2.2869795e-04    7.3780
26.725   2.3316426e-04    7.4480
26.775   2.2485052e-04    7.9716
26.825   2.0663017e-04    7.3325
26.875   2.1425678e-04    7.9580
26.925   2.1353875e-04    8.1050
26.975   1.9688032e-04    7.6264
27.025   2.1384203e-04    8.3375
27.075   2.1985624e-04    7.5840
27.125   2.4033191e-04    8.3573
27.175   2.2859928e-04    8.1532
27.225   2.2481623e-04    8.1868
27.275   2.2256975e-04    8.7611
27.325   1.9669522e-04    7.9961
27.375   2.4705514e-04    8.9600
27.425   2.1079803e-04    8.3515
27.475   2.0973427e-04    8.4072
27.525   2.0220456e-04    8.1897
27.575   1.9575676e-04    8.8358
27.625   1.9626576e-04    8.5184
27.675   1.9927832e-04    8.2531
27.725   1.9759882e-04    8.7319
27.775   2.0179844e-04    8.2411
27.825   1.9800546e-04    8.1783
27.875   2.1270951e-04    8.2449
27.925   2.2313162e-04    8.5976
27.975   1.9750017e-04    8.3887
28.025   1.9199061e-04    9.2813
28.075   1.8131992e-04    8.0514
28.125   1.8354167e-04    9.0691
28.175   1.9581700e-04    9.0241
28.225   2.0281099e-04    8.3762
28.275   2.1333234e-04    8.8954
28.325   1.9860452e-04    8.4978
28.375   2.0175139e-04    8.5666
28.425   1.8499525e-04    8.0335
28.475   1.8065783e-04    8.5775
28.525   1.8771592e-04    8.4222
28.575   1.8809217e-04    9.2724
28.625   1.6273187e-04    8.2306
28.675   1.9080901e-04    8.5551
28.725   1.6878012e-04    8.1748
28.775   1.7299884e-04    8.4231
28.825   1.7950635e-04    7.8757
28.875   1.9552042e-04    8.3788
28.925   1.8319777e-04    8.5014
28.975   1.8295889e-04    9.1223
29.025   1.7117718e-04    8.5376
29.075   1.7342080e-04    9.7129
29.125   1.7892809e-04    9.3529
29.175   1.7495313e-04    8.7133
29.225   1.8031371e-04    8.8652
29.275   1.8365524e-04    8.6738
29.325   1.8731652e-04    8.9987
29.375   1.7996737e-04    9.6199
29.425   1.8111769e-04    8.3139
29.475   1.8192449e-04    8.8127
29.525   1.8518805e-04    9.1874
29.575   1.6370601e-04    8.3278
29.625   1.5137577e-04    8.2186
29.675   1.7898693e-04    9.5703
29.725   1.7496287e-04    9.3491
29.775   1.5985571e-04    8.7053
29.825   1.6909568e-04    8.6620
29.875   1.7239313e-04    8.4942
29.925   1.6845172e-04    8.3302
29.975   1.6916659e-04    9.8808
30.025   1.8559400e-04    9.1932
